Created as New Dataset,Sample 035 By whitece Date Monday, June 29 2020
cm-1,%T
4000.00,98.74
3999.50,98.73
3999.00,98.72
3998.50,98.71
3998.00,98.71
3997.50,98.71
3997.00,98.71
3996.50,98.71
3996.00,98.72
3995.50,98.73
3995.00,98.75
3994.50,98.77
3994.00,98.79
3993.50,98.78
3993.00,98.76
3992.50,98.73
3992.00,98.72
3991.50,98.72
3991.00,98.72
3990.50,98.72
3990.00,98.70
3989.50,98.69
3989.00,98.68
3988.50,98.68
3988.00,98.69
3987.50,98.69
3987.00,98.69
3986.50,98.70
3986.00,98.72
3985.50,98.72
3985.00,98.73
3984.50,98.72
3984.00,98.72
3983.50,98.71
3983.00,98.71
3982.50,98.71
3982.00,98.72
3981.50,98.73
3981.00,98.74
3980.50,98.75
3980.00,98.75
3979.50,98.74
3979.00,98.73
3978.50,98.73
3978.00,98.73
3977.50,98.73
3977.00,98.72
3976.50,98.71
3976.00,98.69
3975.50,98.68
3975.00,98.68
3974.50,98.69
3974.00,98.70
3973.50,98.70
3973.00,98.70
3972.50,98.69
3972.00,98.68
3971.50,98.68
3971.00,98.68
3970.50,98.69
3970.00,98.69
3969.50,98.69
3969.00,98.69
3968.50,98.70
3968.00,98.71
3967.50,98.74
3967.00,98.76
3966.50,98.77
3966.00,98.77
3965.50,98.76
3965.00,98.76
3964.50,98.76
3964.00,98.77
3963.50,98.78
3963.00,98.78
3962.50,98.77
3962.00,98.76
3961.50,98.75
3961.00,98.73
3960.50,98.72
3960.00,98.70
3959.50,98.69
3959.00,98.70
3958.50,98.72
3958.00,98.74
3957.50,98.76
3957.00,98.76
3956.50,98.75
3956.00,98.75
3955.50,98.75
3955.00,98.76
3954.50,98.75
3954.00,98.73
3953.50,98.72
3953.00,98.71
3952.50,98.73
3952.00,98.75
3951.50,98.77
3951.00,98.78
3950.50,98.77
3950.00,98.76
3949.50,98.76
3949.00,98.77
3948.50,98.77
3948.00,98.76
3947.50,98.74
3947.00,98.73
3946.50,98.73
3946.00,98.74
3945.50,98.75
3945.00,98.76
3944.50,98.77
3944.00,98.79
3943.50,98.80
3943.00,98.80
3942.50,98.77
3942.00,98.74
3941.50,98.71
3941.00,98.70
3940.50,98.70
3940.00,98.72
3939.50,98.72
3939.00,98.72
3938.50,98.71
3938.00,98.71
3937.50,98.73
3937.00,98.75
3936.50,98.77
3936.00,98.77
3935.50,98.76
3935.00,98.74
3934.50,98.73
3934.00,98.75
3933.50,98.77
3933.00,98.78
3932.50,98.78
3932.00,98.77
3931.50,98.77
3931.00,98.77
3930.50,98.78
3930.00,98.78
3929.50,98.77
3929.00,98.74
3928.50,98.71
3928.00,98.71
3927.50,98.73
3927.00,98.76
3926.50,98.79
3926.00,98.80
3925.50,98.79
3925.00,98.76
3924.50,98.72
3924.00,98.70
3923.50,98.69
3923.00,98.70
3922.50,98.72
3922.00,98.74
3921.50,98.76
3921.00,98.79
3920.50,98.80
3920.00,98.82
3919.50,98.82
3919.00,98.83
3918.50,98.84
3918.00,98.85
3917.50,98.85
3917.00,98.83
3916.50,98.80
3916.00,98.75
3915.50,98.72
3915.00,98.70
3914.50,98.70
3914.00,98.72
3913.50,98.74
3913.00,98.77
3912.50,98.79
3912.00,98.79
3911.50,98.78
3911.00,98.77
3910.50,98.75
3910.00,98.75
3909.50,98.74
3909.00,98.74
3908.50,98.74
3908.00,98.74
3907.50,98.76
3907.00,98.80
3906.50,98.86
3906.00,98.93
3905.50,98.97
3905.00,98.99
3904.50,99.01
3904.00,99.01
3903.50,99.02
3903.00,99.01
3902.50,98.99
3902.00,98.98
3901.50,98.97
3901.00,98.97
3900.50,98.97
3900.00,98.96
3899.50,98.92
3899.00,98.87
3898.50,98.81
3898.00,98.78
3897.50,98.77
3897.00,98.78
3896.50,98.79
3896.00,98.80
3895.50,98.80
3895.00,98.80
3894.50,98.80
3894.00,98.81
3893.50,98.84
3893.00,98.89
3892.50,98.94
3892.00,98.95
3891.50,98.92
3891.00,98.87
3890.50,98.82
3890.00,98.79
3889.50,98.77
3889.00,98.76
3888.50,98.79
3888.00,98.88
3887.50,99.00
3887.00,99.10
3886.50,99.13
3886.00,99.08
3885.50,98.99
3885.00,98.91
3884.50,98.87
3884.00,98.85
3883.50,98.84
3883.00,98.84
3882.50,98.87
3882.00,98.93
3881.50,98.99
3881.00,99.01
3880.50,98.98
3880.00,98.91
3879.50,98.84
3879.00,98.79
3878.50,98.77
3878.00,98.78
3877.50,98.79
3877.00,98.80
3876.50,98.82
3876.00,98.85
3875.50,98.87
3875.00,98.88
3874.50,98.87
3874.00,98.83
3873.50,98.80
3873.00,98.80
3872.50,98.85
3872.00,98.96
3871.50,99.08
3871.00,99.18
3870.50,99.19
3870.00,99.13
3869.50,99.01
3869.00,98.90
3868.50,98.82
3868.00,98.80
3867.50,98.83
3867.00,98.89
3866.50,98.96
3866.00,99.00
3865.50,99.01
3865.00,98.97
3864.50,98.93
3864.00,98.91
3863.50,98.91
3863.00,98.91
3862.50,98.91
3862.00,98.89
3861.50,98.85
3861.00,98.80
3860.50,98.76
3860.00,98.74
3859.50,98.75
3859.00,98.80
3858.50,98.85
3858.00,98.88
3857.50,98.91
3857.00,98.96
3856.50,99.09
3856.00,99.30
3855.50,99.55
3855.00,99.71
3854.50,99.74
3854.00,99.66
3853.50,99.53
3853.00,99.41
3852.50,99.28
3852.00,99.13
3851.50,98.99
3851.00,98.87
3850.50,98.80
3850.00,98.77
3849.50,98.76
3849.00,98.77
3848.50,98.79
3848.00,98.79
3847.50,98.79
3847.00,98.78
3846.50,98.78
3846.00,98.80
3845.50,98.84
3845.00,98.87
3844.50,98.89
3844.00,98.90
3843.50,98.92
3843.00,98.93
3842.50,98.95
3842.00,98.96
3841.50,98.97
3841.00,98.97
3840.50,99.00
3840.00,99.08
3839.50,99.18
3839.00,99.27
3838.50,99.29
3838.00,99.22
3837.50,99.11
3837.00,99.03
3836.50,99.00
3836.00,99.00
3835.50,98.99
3835.00,98.95
3834.50,98.92
3834.00,98.91
3833.50,98.93
3833.00,98.97
3832.50,98.99
3832.00,98.97
3831.50,98.91
3831.00,98.84
3830.50,98.80
3830.00,98.79
3829.50,98.80
3829.00,98.83
3828.50,98.86
3828.00,98.90
3827.50,98.92
3827.00,98.92
3826.50,98.91
3826.00,98.88
3825.50,98.85
3825.00,98.83
3824.50,98.84
3824.00,98.89
3823.50,98.98
3823.00,99.09
3822.50,99.17
3822.00,99.21
3821.50,99.17
3821.00,99.09
3820.50,98.99
3820.00,98.91
3819.50,98.87
3819.00,98.88
3818.50,98.96
3818.00,99.09
3817.50,99.22
3817.00,99.30
3816.50,99.27
3816.00,99.17
3815.50,99.04
3815.00,98.92
3814.50,98.84
3814.00,98.79
3813.50,98.77
3813.00,98.77
3812.50,98.78
3812.00,98.80
3811.50,98.80
3811.00,98.80
3810.50,98.79
3810.00,98.80
3809.50,98.84
3809.00,98.91
3808.50,99.00
3808.00,99.06
3807.50,99.07
3807.00,99.02
3806.50,98.93
3806.00,98.85
3805.50,98.81
3805.00,98.80
3804.50,98.85
3804.00,98.94
3803.50,99.07
3803.00,99.22
3802.50,99.33
3802.00,99.35
3801.50,99.27
3801.00,99.12
3800.50,98.97
3800.00,98.87
3799.50,98.83
3799.00,98.82
3798.50,98.84
3798.00,98.86
3797.50,98.87
3797.00,98.86
3796.50,98.84
3796.00,98.80
3795.50,98.78
3795.00,98.77
3794.50,98.78
3794.00,98.79
3793.50,98.80
3793.00,98.81
3792.50,98.81
3792.00,98.80
3791.50,98.78
3791.00,98.76
3790.50,98.75
3790.00,98.76
3789.50,98.77
3789.00,98.78
3788.50,98.79
3788.00,98.79
3787.50,98.79
3787.00,98.79
3786.50,98.80
3786.00,98.81
3785.50,98.81
3785.00,98.82
3784.50,98.83
3784.00,98.83
3783.50,98.82
3783.00,98.81
3782.50,98.80
3782.00,98.82
3781.50,98.87
3781.00,98.92
3780.50,98.95
3780.00,98.94
3779.50,98.91
3779.00,98.87
3778.50,98.84
3778.00,98.82
3777.50,98.80
3777.00,98.78
3776.50,98.77
3776.00,98.75
3775.50,98.76
3775.00,98.78
3774.50,98.79
3774.00,98.79
3773.50,98.77
3773.00,98.76
3772.50,98.78
3772.00,98.84
3771.50,98.92
3771.00,98.99
3770.50,99.01
3770.00,98.97
3769.50,98.90
3769.00,98.83
3768.50,98.79
3768.00,98.79
3767.50,98.81
3767.00,98.84
3766.50,98.86
3766.00,98.86
3765.50,98.84
3765.00,98.82
3764.50,98.79
3764.00,98.77
3763.50,98.75
3763.00,98.75
3762.50,98.78
3762.00,98.85
3761.50,98.92
3761.00,98.97
3760.50,98.98
3760.00,98.94
3759.50,98.89
3759.00,98.85
3758.50,98.84
3758.00,98.86
3757.50,98.87
3757.00,98.87
3756.50,98.85
3756.00,98.82
3755.50,98.82
3755.00,98.85
3754.50,98.94
3754.00,99.09
3753.50,99.25
3753.00,99.35
3752.50,99.34
3752.00,99.27
3751.50,99.23
3751.00,99.27
3750.50,99.34
3750.00,99.35
3749.50,99.27
3749.00,99.12
3748.50,98.98
3748.00,98.90
3747.50,98.93
3747.00,99.05
3746.50,99.26
3746.00,99.50
3745.50,99.64
3745.00,99.62
3744.50,99.43
3744.00,99.17
3743.50,98.96
3743.00,98.84
3742.50,98.81
3742.00,98.81
3741.50,98.82
3741.00,98.82
3740.50,98.82
3740.00,98.82
3739.50,98.83
3739.00,98.86
3738.50,98.93
3738.00,99.01
3737.50,99.09
3737.00,99.13
3736.50,99.15
3736.00,99.12
3735.50,99.07
3735.00,99.02
3734.50,98.98
3734.00,98.98
3733.50,99.00
3733.00,99.02
3732.50,99.00
3732.00,98.95
3731.50,98.89
3731.00,98.83
3730.50,98.78
3730.00,98.75
3729.50,98.74
3729.00,98.74
3728.50,98.77
3728.00,98.80
3727.50,98.83
3727.00,98.84
3726.50,98.82
3726.00,98.80
3725.50,98.78
3725.00,98.77
3724.50,98.77
3724.00,98.79
3723.50,98.81
3723.00,98.82
3722.50,98.82
3722.00,98.80
3721.50,98.78
3721.00,98.76
3720.50,98.75
3720.00,98.74
3719.50,98.73
3719.00,98.71
3718.50,98.70
3718.00,98.68
3717.50,98.69
3717.00,98.70
3716.50,98.72
3716.00,98.72
3715.50,98.72
3715.00,98.73
3714.50,98.78
3714.00,98.86
3713.50,98.94
3713.00,98.99
3712.50,98.97
3712.00,98.90
3711.50,98.83
3711.00,98.81
3710.50,98.81
3710.00,98.81
3709.50,98.77
3709.00,98.70
3708.50,98.63
3708.00,98.59
3707.50,98.58
3707.00,98.59
3706.50,98.59
3706.00,98.57
3705.50,98.55
3705.00,98.54
3704.50,98.55
3704.00,98.58
3703.50,98.61
3703.00,98.64
3702.50,98.64
3702.00,98.63
3701.50,98.59
3701.00,98.55
3700.50,98.50
3700.00,98.47
3699.50,98.45
3699.00,98.45
3698.50,98.46
3698.00,98.46
3697.50,98.46
3697.00,98.45
3696.50,98.43
3696.00,98.41
3695.50,98.41
3695.00,98.41
3694.50,98.41
3694.00,98.42
3693.50,98.46
3693.00,98.51
3692.50,98.57
3692.00,98.59
3691.50,98.58
3691.00,98.58
3690.50,98.63
3690.00,98.72
3689.50,98.80
3689.00,98.79
3688.50,98.68
3688.00,98.51
3687.50,98.34
3687.00,98.23
3686.50,98.16
3686.00,98.14
3685.50,98.13
3685.00,98.11
3684.50,98.10
3684.00,98.09
3683.50,98.08
3683.00,98.05
3682.50,98.02
3682.00,97.99
3681.50,97.99
3681.00,98.02
3680.50,98.05
3680.00,98.06
3679.50,98.05
3679.00,98.05
3678.50,98.07
3678.00,98.14
3677.50,98.24
3677.00,98.34
3676.50,98.39
3676.00,98.37
3675.50,98.27
3675.00,98.13
3674.50,98.00
3674.00,97.88
3673.50,97.82
3673.00,97.82
3672.50,97.88
3672.00,97.97
3671.50,98.01
3671.00,97.99
3670.50,97.92
3670.00,97.82
3669.50,97.73
3669.00,97.65
3668.50,97.56
3668.00,97.49
3667.50,97.43
3667.00,97.38
3666.50,97.34
3666.00,97.30
3665.50,97.27
3665.00,97.27
3664.50,97.27
3664.00,97.27
3663.50,97.26
3663.00,97.24
3662.50,97.20
3662.00,97.16
3661.50,97.12
3661.00,97.10
3660.50,97.07
3660.00,97.03
3659.50,97.00
3659.00,96.98
3658.50,97.00
3658.00,97.04
3657.50,97.09
3657.00,97.11
3656.50,97.07
3656.00,97.00
3655.50,96.91
3655.00,96.83
3654.50,96.77
3654.00,96.75
3653.50,96.76
3653.00,96.80
3652.50,96.85
3652.00,96.89
3651.50,96.92
3651.00,96.95
3650.50,96.97
3650.00,96.97
3649.50,96.92
3649.00,96.85
3648.50,96.78
3648.00,96.71
3647.50,96.65
3647.00,96.58
3646.50,96.50
3646.00,96.41
3645.50,96.33
3645.00,96.29
3644.50,96.27
3644.00,96.27
3643.50,96.25
3643.00,96.23
3642.50,96.19
3642.00,96.15
3641.50,96.12
3641.00,96.10
3640.50,96.08
3640.00,96.07
3639.50,96.06
3639.00,96.04
3638.50,96.01
3638.00,95.99
3637.50,95.97
3637.00,95.94
3636.50,95.92
3636.00,95.91
3635.50,95.91
3635.00,95.92
3634.50,95.91
3634.00,95.88
3633.50,95.84
3633.00,95.80
3632.50,95.79
3632.00,95.82
3631.50,95.89
3631.00,95.99
3630.50,96.08
3630.00,96.13
3629.50,96.10
3629.00,96.01
3628.50,95.87
3628.00,95.73
3627.50,95.62
3627.00,95.55
3626.50,95.50
3626.00,95.46
3625.50,95.43
3625.00,95.41
3624.50,95.40
3624.00,95.39
3623.50,95.37
3623.00,95.35
3622.50,95.35
3622.00,95.37
3621.50,95.42
3621.00,95.46
3620.50,95.48
3620.00,95.47
3619.50,95.44
3619.00,95.39
3618.50,95.35
3618.00,95.30
3617.50,95.25
3617.00,95.20
3616.50,95.15
3616.00,95.11
3615.50,95.09
3615.00,95.10
3614.50,95.13
3614.00,95.16
3613.50,95.16
3613.00,95.12
3612.50,95.07
3612.00,95.02
3611.50,95.01
3611.00,95.03
3610.50,95.06
3610.00,95.07
3609.50,95.05
3609.00,95.00
3608.50,94.94
3608.00,94.88
3607.50,94.82
3607.00,94.77
3606.50,94.72
3606.00,94.68
3605.50,94.66
3605.00,94.64
3604.50,94.63
3604.00,94.63
3603.50,94.62
3603.00,94.60
3602.50,94.57
3602.00,94.54
3601.50,94.53
3601.00,94.52
3600.50,94.52
3600.00,94.51
3599.50,94.49
3599.00,94.45
3598.50,94.43
3598.00,94.42
3597.50,94.42
3597.00,94.43
3596.50,94.43
3596.00,94.42
3595.50,94.40
3595.00,94.36
3594.50,94.32
3594.00,94.28
3593.50,94.24
3593.00,94.21
3592.50,94.18
3592.00,94.17
3591.50,94.17
3591.00,94.18
3590.50,94.19
3590.00,94.21
3589.50,94.22
3589.00,94.23
3588.50,94.22
3588.00,94.20
3587.50,94.17
3587.00,94.12
3586.50,94.06
3586.00,93.99
3585.50,93.93
3585.00,93.89
3584.50,93.87
3584.00,93.86
3583.50,93.86
3583.00,93.84
3582.50,93.83
3582.00,93.81
3581.50,93.80
3581.00,93.79
3580.50,93.77
3580.00,93.76
3579.50,93.74
3579.00,93.73
3578.50,93.71
3578.00,93.68
3577.50,93.65
3577.00,93.61
3576.50,93.58
3576.00,93.55
3575.50,93.53
3575.00,93.50
3574.50,93.48
3574.00,93.47
3573.50,93.47
3573.00,93.46
3572.50,93.43
3572.00,93.40
3571.50,93.37
3571.00,93.37
3570.50,93.38
3570.00,93.42
3569.50,93.45
3569.00,93.47
3568.50,93.46
3568.00,93.44
3567.50,93.41
3567.00,93.37
3566.50,93.33
3566.00,93.27
3565.50,93.21
3565.00,93.15
3564.50,93.12
3564.00,93.10
3563.50,93.08
3563.00,93.04
3562.50,93.01
3562.00,92.99
3561.50,92.98
3561.00,92.98
3560.50,92.96
3560.00,92.93
3559.50,92.88
3559.00,92.83
3558.50,92.79
3558.00,92.77
3557.50,92.76
3557.00,92.74
3556.50,92.73
3556.00,92.71
3555.50,92.69
3555.00,92.68
3554.50,92.67
3554.00,92.67
3553.50,92.65
3553.00,92.64
3552.50,92.62
3552.00,92.59
3551.50,92.55
3551.00,92.49
3550.50,92.44
3550.00,92.40
3549.50,92.39
3549.00,92.39
3548.50,92.40
3548.00,92.41
3547.50,92.41
3547.00,92.40
3546.50,92.38
3546.00,92.35
3545.50,92.31
3545.00,92.26
3544.50,92.21
3544.00,92.17
3543.50,92.14
3543.00,92.12
3542.50,92.10
3542.00,92.08
3541.50,92.06
3541.00,92.04
3540.50,92.02
3540.00,92.01
3539.50,92.01
3539.00,92.00
3538.50,91.99
3538.00,91.97
3537.50,91.96
3537.00,91.94
3536.50,91.91
3536.00,91.87
3535.50,91.83
3535.00,91.79
3534.50,91.76
3534.00,91.75
3533.50,91.74
3533.00,91.73
3532.50,91.71
3532.00,91.68
3531.50,91.65
3531.00,91.63
3530.50,91.62
3530.00,91.61
3529.50,91.60
3529.00,91.59
3528.50,91.57
3528.00,91.52
3527.50,91.48
3527.00,91.45
3526.50,91.43
3526.00,91.43
3525.50,91.43
3525.00,91.43
3524.50,91.41
3524.00,91.39
3523.50,91.36
3523.00,91.33
3522.50,91.30
3522.00,91.27
3521.50,91.25
3521.00,91.22
3520.50,91.19
3520.00,91.17
3519.50,91.15
3519.00,91.13
3518.50,91.12
3518.00,91.11
3517.50,91.10
3517.00,91.08
3516.50,91.07
3516.00,91.05
3515.50,91.03
3515.00,91.01
3514.50,91.00
3514.00,90.98
3513.50,90.95
3513.00,90.91
3512.50,90.88
3512.00,90.86
3511.50,90.84
3511.00,90.83
3510.50,90.83
3510.00,90.83
3509.50,90.82
3509.00,90.80
3508.50,90.78
3508.00,90.76
3507.50,90.75
3507.00,90.75
3506.50,90.74
3506.00,90.73
3505.50,90.72
3505.00,90.70
3504.50,90.68
3504.00,90.67
3503.50,90.67
3503.00,90.65
3502.50,90.62
3502.00,90.57
3501.50,90.53
3501.00,90.50
3500.50,90.49
3500.00,90.49
3499.50,90.49
3499.00,90.47
3498.50,90.44
3498.00,90.41
3497.50,90.39
3497.00,90.39
3496.50,90.39
3496.00,90.39
3495.50,90.39
3495.00,90.36
3494.50,90.33
3494.00,90.29
3493.50,90.25
3493.00,90.21
3492.50,90.19
3492.00,90.17
3491.50,90.16
3491.00,90.17
3490.50,90.18
3490.00,90.18
3489.50,90.17
3489.00,90.14
3488.50,90.10
3488.00,90.07
3487.50,90.04
3487.00,90.03
3486.50,90.03
3486.00,90.02
3485.50,90.02
3485.00,90.01
3484.50,89.99
3484.00,89.96
3483.50,89.92
3483.00,89.88
3482.50,89.85
3482.00,89.82
3481.50,89.80
3481.00,89.79
3480.50,89.81
3480.00,89.83
3479.50,89.84
3479.00,89.84
3478.50,89.82
3478.00,89.78
3477.50,89.74
3477.00,89.71
3476.50,89.70
3476.00,89.71
3475.50,89.72
3475.00,89.71
3474.50,89.68
3474.00,89.65
3473.50,89.64
3473.00,89.63
3472.50,89.62
3472.00,89.61
3471.50,89.59
3471.00,89.58
3470.50,89.56
3470.00,89.55
3469.50,89.53
3469.00,89.52
3468.50,89.50
3468.00,89.49
3467.50,89.48
3467.00,89.48
3466.50,89.48
3466.00,89.48
3465.50,89.47
3465.00,89.44
3464.50,89.40
3464.00,89.37
3463.50,89.34
3463.00,89.32
3462.50,89.31
3462.00,89.31
3461.50,89.32
3461.00,89.32
3460.50,89.30
3460.00,89.28
3459.50,89.26
3459.00,89.25
3458.50,89.25
3458.00,89.26
3457.50,89.25
3457.00,89.22
3456.50,89.18
3456.00,89.14
3455.50,89.12
3455.00,89.11
3454.50,89.10
3454.00,89.10
3453.50,89.10
3453.00,89.10
3452.50,89.09
3452.00,89.07
3451.50,89.04
3451.00,89.02
3450.50,89.00
3450.00,88.98
3449.50,88.95
3449.00,88.93
3448.50,88.91
3448.00,88.91
3447.50,88.92
3447.00,88.91
3446.50,88.90
3446.00,88.87
3445.50,88.84
3445.00,88.80
3444.50,88.79
3444.00,88.79
3443.50,88.80
3443.00,88.81
3442.50,88.80
3442.00,88.78
3441.50,88.76
3441.00,88.74
3440.50,88.73
3440.00,88.70
3439.50,88.68
3439.00,88.65
3438.50,88.65
3438.00,88.65
3437.50,88.65
3437.00,88.64
3436.50,88.63
3436.00,88.61
3435.50,88.59
3435.00,88.56
3434.50,88.54
3434.00,88.52
3433.50,88.51
3433.00,88.50
3432.50,88.49
3432.00,88.49
3431.50,88.49
3431.00,88.48
3430.50,88.47
3430.00,88.45
3429.50,88.43
3429.00,88.41
3428.50,88.40
3428.00,88.39
3427.50,88.38
3427.00,88.38
3426.50,88.37
3426.00,88.36
3425.50,88.35
3425.00,88.34
3424.50,88.33
3424.00,88.33
3423.50,88.33
3423.00,88.32
3422.50,88.30
3422.00,88.28
3421.50,88.26
3421.00,88.23
3420.50,88.21
3420.00,88.20
3419.50,88.18
3419.00,88.17
3418.50,88.17
3418.00,88.16
3417.50,88.15
3417.00,88.13
3416.50,88.11
3416.00,88.09
3415.50,88.06
3415.00,88.04
3414.50,88.03
3414.00,88.02
3413.50,88.03
3413.00,88.03
3412.50,88.03
3412.00,88.02
3411.50,88.00
3411.00,87.98
3410.50,87.95
3410.00,87.92
3409.50,87.89
3409.00,87.86
3408.50,87.84
3408.00,87.84
3407.50,87.85
3407.00,87.86
3406.50,87.85
3406.00,87.83
3405.50,87.80
3405.00,87.78
3404.50,87.78
3404.00,87.77
3403.50,87.76
3403.00,87.75
3402.50,87.73
3402.00,87.72
3401.50,87.70
3401.00,87.68
3400.50,87.67
3400.00,87.66
3399.50,87.66
3399.00,87.66
3398.50,87.65
3398.00,87.65
3397.50,87.64
3397.00,87.64
3396.50,87.64
3396.00,87.65
3395.50,87.67
3395.00,87.67
3394.50,87.65
3394.00,87.63
3393.50,87.61
3393.00,87.60
3392.50,87.60
3392.00,87.60
3391.50,87.60
3391.00,87.60
3390.50,87.59
3390.00,87.58
3389.50,87.57
3389.00,87.55
3388.50,87.52
3388.00,87.49
3387.50,87.48
3387.00,87.47
3386.50,87.49
3386.00,87.51
3385.50,87.54
3385.00,87.55
3384.50,87.54
3384.00,87.52
3383.50,87.50
3383.00,87.48
3382.50,87.47
3382.00,87.47
3381.50,87.46
3381.00,87.45
3380.50,87.43
3380.00,87.41
3379.50,87.40
3379.00,87.39
3378.50,87.39
3378.00,87.39
3377.50,87.39
3377.00,87.39
3376.50,87.39
3376.00,87.38
3375.50,87.37
3375.00,87.36
3374.50,87.36
3374.00,87.35
3373.50,87.35
3373.00,87.34
3372.50,87.35
3372.00,87.36
3371.50,87.37
3371.00,87.37
3370.50,87.36
3370.00,87.35
3369.50,87.34
3369.00,87.32
3368.50,87.30
3368.00,87.27
3367.50,87.25
3367.00,87.24
3366.50,87.23
3366.00,87.22
3365.50,87.22
3365.00,87.22
3364.50,87.23
3364.00,87.23
3363.50,87.24
3363.00,87.24
3362.50,87.22
3362.00,87.21
3361.50,87.20
3361.00,87.19
3360.50,87.18
3360.00,87.16
3359.50,87.16
3359.00,87.17
3358.50,87.18
3358.00,87.19
3357.50,87.19
3357.00,87.17
3356.50,87.16
3356.00,87.15
3355.50,87.14
3355.00,87.14
3354.50,87.13
3354.00,87.12
3353.50,87.11
3353.00,87.10
3352.50,87.08
3352.00,87.07
3351.50,87.06
3351.00,87.07
3350.50,87.07
3350.00,87.08
3349.50,87.08
3349.00,87.07
3348.50,87.06
3348.00,87.05
3347.50,87.05
3347.00,87.04
3346.50,87.04
3346.00,87.02
3345.50,87.01
3345.00,87.01
3344.50,87.01
3344.00,87.01
3343.50,87.01
3343.00,87.00
3342.50,86.99
3342.00,86.98
3341.50,86.97
3341.00,86.95
3340.50,86.94
3340.00,86.94
3339.50,86.94
3339.00,86.95
3338.50,86.94
3338.00,86.93
3337.50,86.93
3337.00,86.92
3336.50,86.91
3336.00,86.90
3335.50,86.89
3335.00,86.90
3334.50,86.91
3334.00,86.90
3333.50,86.88
3333.00,86.86
3332.50,86.84
3332.00,86.83
3331.50,86.83
3331.00,86.83
3330.50,86.83
3330.00,86.83
3329.50,86.83
3329.00,86.82
3328.50,86.81
3328.00,86.80
3327.50,86.81
3327.00,86.81
3326.50,86.81
3326.00,86.80
3325.50,86.79
3325.00,86.78
3324.50,86.76
3324.00,86.74
3323.50,86.72
3323.00,86.70
3322.50,86.70
3322.00,86.71
3321.50,86.73
3321.00,86.74
3320.50,86.74
3320.00,86.73
3319.50,86.71
3319.00,86.70
3318.50,86.69
3318.00,86.70
3317.50,86.71
3317.00,86.72
3316.50,86.73
3316.00,86.74
3315.50,86.74
3315.00,86.73
3314.50,86.70
3314.00,86.68
3313.50,86.67
3313.00,86.67
3312.50,86.66
3312.00,86.64
3311.50,86.62
3311.00,86.61
3310.50,86.60
3310.00,86.61
3309.50,86.61
3309.00,86.62
3308.50,86.61
3308.00,86.60
3307.50,86.58
3307.00,86.58
3306.50,86.58
3306.00,86.59
3305.50,86.60
3305.00,86.58
3304.50,86.56
3304.00,86.54
3303.50,86.53
3303.00,86.52
3302.50,86.50
3302.00,86.48
3301.50,86.48
3301.00,86.48
3300.50,86.49
3300.00,86.50
3299.50,86.50
3299.00,86.49
3298.50,86.48
3298.00,86.47
3297.50,86.47
3297.00,86.46
3296.50,86.46
3296.00,86.45
3295.50,86.45
3295.00,86.45
3294.50,86.45
3294.00,86.44
3293.50,86.43
3293.00,86.41
3292.50,86.40
3292.00,86.39
3291.50,86.39
3291.00,86.40
3290.50,86.40
3290.00,86.39
3289.50,86.37
3289.00,86.34
3288.50,86.31
3288.00,86.28
3287.50,86.27
3287.00,86.27
3286.50,86.28
3286.00,86.29
3285.50,86.28
3285.00,86.27
3284.50,86.26
3284.00,86.25
3283.50,86.24
3283.00,86.22
3282.50,86.20
3282.00,86.19
3281.50,86.18
3281.00,86.18
3280.50,86.18
3280.00,86.18
3279.50,86.18
3279.00,86.17
3278.50,86.15
3278.00,86.14
3277.50,86.14
3277.00,86.14
3276.50,86.14
3276.00,86.14
3275.50,86.13
3275.00,86.12
3274.50,86.11
3274.00,86.10
3273.50,86.11
3273.00,86.12
3272.50,86.12
3272.00,86.12
3271.50,86.11
3271.00,86.09
3270.50,86.07
3270.00,86.04
3269.50,86.00
3269.00,85.98
3268.50,85.98
3268.00,86.00
3267.50,86.02
3267.00,86.03
3266.50,86.03
3266.00,86.01
3265.50,86.00
3265.00,85.99
3264.50,85.99
3264.00,86.00
3263.50,86.00
3263.00,85.99
3262.50,85.97
3262.00,85.95
3261.50,85.93
3261.00,85.93
3260.50,85.94
3260.00,85.95
3259.50,85.95
3259.00,85.94
3258.50,85.93
3258.00,85.91
3257.50,85.89
3257.00,85.88
3256.50,85.87
3256.00,85.86
3255.50,85.85
3255.00,85.85
3254.50,85.83
3254.00,85.82
3253.50,85.82
3253.00,85.81
3252.50,85.81
3252.00,85.80
3251.50,85.77
3251.00,85.75
3250.50,85.75
3250.00,85.76
3249.50,85.78
3249.00,85.78
3248.50,85.77
3248.00,85.75
3247.50,85.73
3247.00,85.72
3246.50,85.71
3246.00,85.71
3245.50,85.70
3245.00,85.68
3244.50,85.68
3244.00,85.69
3243.50,85.70
3243.00,85.70
3242.50,85.69
3242.00,85.68
3241.50,85.66
3241.00,85.66
3240.50,85.65
3240.00,85.63
3239.50,85.60
3239.00,85.58
3238.50,85.58
3238.00,85.59
3237.50,85.61
3237.00,85.62
3236.50,85.61
3236.00,85.60
3235.50,85.60
3235.00,85.59
3234.50,85.58
3234.00,85.57
3233.50,85.55
3233.00,85.53
3232.50,85.51
3232.00,85.49
3231.50,85.47
3231.00,85.46
3230.50,85.47
3230.00,85.49
3229.50,85.52
3229.00,85.54
3228.50,85.55
3228.00,85.55
3227.50,85.53
3227.00,85.51
3226.50,85.49
3226.00,85.46
3225.50,85.43
3225.00,85.42
3224.50,85.41
3224.00,85.41
3223.50,85.41
3223.00,85.41
3222.50,85.41
3222.00,85.42
3221.50,85.43
3221.00,85.42
3220.50,85.41
3220.00,85.40
3219.50,85.40
3219.00,85.39
3218.50,85.39
3218.00,85.38
3217.50,85.37
3217.00,85.36
3216.50,85.35
3216.00,85.33
3215.50,85.32
3215.00,85.33
3214.50,85.34
3214.00,85.34
3213.50,85.33
3213.00,85.31
3212.50,85.29
3212.00,85.28
3211.50,85.27
3211.00,85.27
3210.50,85.26
3210.00,85.26
3209.50,85.26
3209.00,85.26
3208.50,85.28
3208.00,85.28
3207.50,85.28
3207.00,85.27
3206.50,85.26
3206.00,85.24
3205.50,85.22
3205.00,85.20
3204.50,85.18
3204.00,85.17
3203.50,85.16
3203.00,85.16
3202.50,85.18
3202.00,85.19
3201.50,85.20
3201.00,85.20
3200.50,85.19
3200.00,85.19
3199.50,85.18
3199.00,85.18
3198.50,85.18
3198.00,85.17
3197.50,85.16
3197.00,85.16
3196.50,85.15
3196.00,85.15
3195.50,85.14
3195.00,85.13
3194.50,85.13
3194.00,85.12
3193.50,85.11
3193.00,85.09
3192.50,85.07
3192.00,85.05
3191.50,85.05
3191.00,85.05
3190.50,85.05
3190.00,85.06
3189.50,85.06
3189.00,85.06
3188.50,85.05
3188.00,85.04
3187.50,85.03
3187.00,85.03
3186.50,85.02
3186.00,85.02
3185.50,85.02
3185.00,85.01
3184.50,85.00
3184.00,84.99
3183.50,84.98
3183.00,84.98
3182.50,84.98
3182.00,84.98
3181.50,84.98
3181.00,84.98
3180.50,84.97
3180.00,84.97
3179.50,84.97
3179.00,84.96
3178.50,84.96
3178.00,84.96
3177.50,84.96
3177.00,84.96
3176.50,84.97
3176.00,84.96
3175.50,84.95
3175.00,84.94
3174.50,84.94
3174.00,84.94
3173.50,84.93
3173.00,84.93
3172.50,84.92
3172.00,84.92
3171.50,84.91
3171.00,84.91
3170.50,84.91
3170.00,84.91
3169.50,84.90
3169.00,84.88
3168.50,84.87
3168.00,84.85
3167.50,84.84
3167.00,84.83
3166.50,84.82
3166.00,84.82
3165.50,84.82
3165.00,84.83
3164.50,84.82
3164.00,84.82
3163.50,84.81
3163.00,84.79
3162.50,84.78
3162.00,84.75
3161.50,84.74
3161.00,84.73
3160.50,84.74
3160.00,84.75
3159.50,84.76
3159.00,84.76
3158.50,84.74
3158.00,84.73
3157.50,84.73
3157.00,84.74
3156.50,84.75
3156.00,84.75
3155.50,84.74
3155.00,84.74
3154.50,84.73
3154.00,84.71
3153.50,84.69
3153.00,84.68
3152.50,84.67
3152.00,84.66
3151.50,84.65
3151.00,84.64
3150.50,84.63
3150.00,84.63
3149.50,84.63
3149.00,84.62
3148.50,84.62
3148.00,84.62
3147.50,84.62
3147.00,84.62
3146.50,84.62
3146.00,84.62
3145.50,84.62
3145.00,84.61
3144.50,84.60
3144.00,84.59
3143.50,84.59
3143.00,84.58
3142.50,84.57
3142.00,84.57
3141.50,84.58
3141.00,84.59
3140.50,84.59
3140.00,84.57
3139.50,84.55
3139.00,84.52
3138.50,84.50
3138.00,84.48
3137.50,84.47
3137.00,84.48
3136.50,84.49
3136.00,84.50
3135.50,84.50
3135.00,84.50
3134.50,84.49
3134.00,84.50
3133.50,84.51
3133.00,84.52
3132.50,84.52
3132.00,84.49
3131.50,84.46
3131.00,84.45
3130.50,84.44
3130.00,84.43
3129.50,84.42
3129.00,84.40
3128.50,84.39
3128.00,84.39
3127.50,84.40
3127.00,84.40
3126.50,84.39
3126.00,84.38
3125.50,84.36
3125.00,84.36
3124.50,84.36
3124.00,84.37
3123.50,84.38
3123.00,84.39
3122.50,84.38
3122.00,84.37
3121.50,84.35
3121.00,84.34
3120.50,84.33
3120.00,84.33
3119.50,84.33
3119.00,84.32
3118.50,84.31
3118.00,84.30
3117.50,84.30
3117.00,84.29
3116.50,84.29
3116.00,84.28
3115.50,84.28
3115.00,84.29
3114.50,84.29
3114.00,84.29
3113.50,84.27
3113.00,84.25
3112.50,84.24
3112.00,84.24
3111.50,84.24
3111.00,84.24
3110.50,84.22
3110.00,84.19
3109.50,84.17
3109.00,84.17
3108.50,84.18
3108.00,84.19
3107.50,84.20
3107.00,84.20
3106.50,84.19
3106.00,84.18
3105.50,84.17
3105.00,84.15
3104.50,84.12
3104.00,84.10
3103.50,84.08
3103.00,84.09
3102.50,84.11
3102.00,84.13
3101.50,84.14
3101.00,84.14
3100.50,84.13
3100.00,84.12
3099.50,84.10
3099.00,84.09
3098.50,84.08
3098.00,84.08
3097.50,84.08
3097.00,84.08
3096.50,84.06
3096.00,84.04
3095.50,84.02
3095.00,84.02
3094.50,84.03
3094.00,84.03
3093.50,84.04
3093.00,84.04
3092.50,84.04
3092.00,84.05
3091.50,84.05
3091.00,84.04
3090.50,84.03
3090.00,84.02
3089.50,84.01
3089.00,84.01
3088.50,84.01
3088.00,84.01
3087.50,84.01
3087.00,84.01
3086.50,84.02
3086.00,84.02
3085.50,84.02
3085.00,84.02
3084.50,84.00
3084.00,83.99
3083.50,83.98
3083.00,83.97
3082.50,83.96
3082.00,83.95
3081.50,83.94
3081.00,83.94
3080.50,83.95
3080.00,83.95
3079.50,83.95
3079.00,83.95
3078.50,83.94
3078.00,83.92
3077.50,83.91
3077.00,83.91
3076.50,83.91
3076.00,83.91
3075.50,83.91
3075.00,83.91
3074.50,83.91
3074.00,83.91
3073.50,83.91
3073.00,83.91
3072.50,83.90
3072.00,83.89
3071.50,83.88
3071.00,83.88
3070.50,83.87
3070.00,83.87
3069.50,83.88
3069.00,83.88
3068.50,83.87
3068.00,83.87
3067.50,83.87
3067.00,83.87
3066.50,83.87
3066.00,83.87
3065.50,83.87
3065.00,83.86
3064.50,83.85
3064.00,83.85
3063.50,83.85
3063.00,83.85
3062.50,83.84
3062.00,83.85
3061.50,83.85
3061.00,83.85
3060.50,83.83
3060.00,83.82
3059.50,83.80
3059.00,83.80
3058.50,83.81
3058.00,83.82
3057.50,83.82
3057.00,83.83
3056.50,83.84
3056.00,83.84
3055.50,83.83
3055.00,83.82
3054.50,83.80
3054.00,83.79
3053.50,83.78
3053.00,83.78
3052.50,83.78
3052.00,83.78
3051.50,83.79
3051.00,83.79
3050.50,83.78
3050.00,83.77
3049.50,83.77
3049.00,83.78
3048.50,83.80
3048.00,83.82
3047.50,83.83
3047.00,83.83
3046.50,83.81
3046.00,83.78
3045.50,83.76
3045.00,83.76
3044.50,83.78
3044.00,83.81
3043.50,83.82
3043.00,83.82
3042.50,83.81
3042.00,83.79
3041.50,83.77
3041.00,83.77
3040.50,83.78
3040.00,83.80
3039.50,83.81
3039.00,83.81
3038.50,83.80
3038.00,83.80
3037.50,83.80
3037.00,83.80
3036.50,83.79
3036.00,83.79
3035.50,83.79
3035.00,83.79
3034.50,83.78
3034.00,83.77
3033.50,83.77
3033.00,83.78
3032.50,83.80
3032.00,83.81
3031.50,83.81
3031.00,83.80
3030.50,83.79
3030.00,83.78
3029.50,83.78
3029.00,83.80
3028.50,83.81
3028.00,83.82
3027.50,83.83
3027.00,83.83
3026.50,83.82
3026.00,83.81
3025.50,83.79
3025.00,83.79
3024.50,83.80
3024.00,83.82
3023.50,83.82
3023.00,83.83
3022.50,83.83
3022.00,83.84
3021.50,83.85
3021.00,83.86
3020.50,83.86
3020.00,83.87
3019.50,83.87
3019.00,83.87
3018.50,83.86
3018.00,83.85
3017.50,83.85
3017.00,83.86
3016.50,83.88
3016.00,83.90
3015.50,83.92
3015.00,83.94
3014.50,83.95
3014.00,83.95
3013.50,83.95
3013.00,83.95
3012.50,83.95
3012.00,83.95
3011.50,83.95
3011.00,83.95
3010.50,83.96
3010.00,83.98
3009.50,83.98
3009.00,83.98
3008.50,83.99
3008.00,84.00
3007.50,84.01
3007.00,84.01
3006.50,84.01
3006.00,84.00
3005.50,84.00
3005.00,84.00
3004.50,84.01
3004.00,84.01
3003.50,84.02
3003.00,84.03
3002.50,84.04
3002.00,84.06
3001.50,84.08
3001.00,84.09
3000.50,84.09
3000.00,84.09
2999.50,84.09
2999.00,84.09
2998.50,84.10
2998.00,84.11
2997.50,84.12
2997.00,84.14
2996.50,84.16
2996.00,84.16
2995.50,84.16
2995.00,84.16
2994.50,84.16
2994.00,84.16
2993.50,84.16
2993.00,84.17
2992.50,84.19
2992.00,84.20
2991.50,84.22
2991.00,84.22
2990.50,84.22
2990.00,84.22
2989.50,84.22
2989.00,84.23
2988.50,84.25
2988.00,84.27
2987.50,84.28
2987.00,84.28
2986.50,84.28
2986.00,84.29
2985.50,84.31
2985.00,84.33
2984.50,84.34
2984.00,84.34
2983.50,84.34
2983.00,84.35
2982.50,84.36
2982.00,84.38
2981.50,84.40
2981.00,84.42
2980.50,84.44
2980.00,84.45
2979.50,84.45
2979.00,84.45
2978.50,84.44
2978.00,84.44
2977.50,84.45
2977.00,84.46
2976.50,84.47
2976.00,84.49
2975.50,84.50
2975.00,84.51
2974.50,84.52
2974.00,84.53
2973.50,84.54
2973.00,84.56
2972.50,84.58
2972.00,84.60
2971.50,84.63
2971.00,84.65
2970.50,84.66
2970.00,84.66
2969.50,84.66
2969.00,84.67
2968.50,84.68
2968.00,84.69
2967.50,84.70
2967.00,84.71
2966.50,84.71
2966.00,84.71
2965.50,84.72
2965.00,84.73
2964.50,84.73
2964.00,84.74
2963.50,84.75
2963.00,84.76
2962.50,84.78
2962.00,84.80
2961.50,84.82
2961.00,84.85
2960.50,84.86
2960.00,84.88
2959.50,84.89
2959.00,84.90
2958.50,84.91
2958.00,84.92
2957.50,84.93
2957.00,84.95
2956.50,84.95
2956.00,84.95
2955.50,84.96
2955.00,84.97
2954.50,85.00
2954.00,85.02
2953.50,85.04
2953.00,85.04
2952.50,85.04
2952.00,85.04
2951.50,85.04
2951.00,85.06
2950.50,85.08
2950.00,85.11
2949.50,85.13
2949.00,85.16
2948.50,85.17
2948.00,85.18
2947.50,85.18
2947.00,85.17
2946.50,85.18
2946.00,85.19
2945.50,85.22
2945.00,85.24
2944.50,85.24
2944.00,85.24
2943.50,85.24
2943.00,85.25
2942.50,85.28
2942.00,85.30
2941.50,85.33
2941.00,85.36
2940.50,85.40
2940.00,85.42
2939.50,85.42
2939.00,85.41
2938.50,85.40
2938.00,85.39
2937.50,85.41
2937.00,85.44
2936.50,85.47
2936.00,85.50
2935.50,85.51
2935.00,85.51
2934.50,85.52
2934.00,85.53
2933.50,85.55
2933.00,85.57
2932.50,85.59
2932.00,85.61
2931.50,85.64
2931.00,85.66
2930.50,85.67
2930.00,85.67
2929.50,85.68
2929.00,85.69
2928.50,85.70
2928.00,85.71
2927.50,85.72
2927.00,85.73
2926.50,85.75
2926.00,85.77
2925.50,85.79
2925.00,85.81
2924.50,85.83
2924.00,85.85
2923.50,85.87
2923.00,85.88
2922.50,85.88
2922.00,85.89
2921.50,85.91
2921.00,85.93
2920.50,85.95
2920.00,85.97
2919.50,85.99
2919.00,86.01
2918.50,86.02
2918.00,86.02
2917.50,86.02
2917.00,86.02
2916.50,86.02
2916.00,86.02
2915.50,86.03
2915.00,86.04
2914.50,86.05
2914.00,86.07
2913.50,86.08
2913.00,86.10
2912.50,86.11
2912.00,86.13
2911.50,86.15
2911.00,86.18
2910.50,86.19
2910.00,86.20
2909.50,86.20
2909.00,86.21
2908.50,86.23
2908.00,86.26
2907.50,86.28
2907.00,86.29
2906.50,86.29
2906.00,86.30
2905.50,86.31
2905.00,86.32
2904.50,86.33
2904.00,86.33
2903.50,86.34
2903.00,86.36
2902.50,86.38
2902.00,86.40
2901.50,86.42
2901.00,86.44
2900.50,86.46
2900.00,86.49
2899.50,86.51
2899.00,86.52
2898.50,86.53
2898.00,86.54
2897.50,86.55
2897.00,86.56
2896.50,86.57
2896.00,86.59
2895.50,86.60
2895.00,86.62
2894.50,86.63
2894.00,86.65
2893.50,86.67
2893.00,86.68
2892.50,86.68
2892.00,86.68
2891.50,86.69
2891.00,86.70
2890.50,86.73
2890.00,86.76
2889.50,86.78
2889.00,86.78
2888.50,86.79
2888.00,86.80
2887.50,86.83
2887.00,86.86
2886.50,86.87
2886.00,86.88
2885.50,86.89
2885.00,86.90
2884.50,86.92
2884.00,86.94
2883.50,86.96
2883.00,86.98
2882.50,87.00
2882.00,87.01
2881.50,87.03
2881.00,87.04
2880.50,87.05
2880.00,87.05
2879.50,87.06
2879.00,87.07
2878.50,87.08
2878.00,87.10
2877.50,87.11
2877.00,87.13
2876.50,87.16
2876.00,87.18
2875.50,87.21
2875.00,87.22
2874.50,87.24
2874.00,87.24
2873.50,87.25
2873.00,87.26
2872.50,87.28
2872.00,87.31
2871.50,87.34
2871.00,87.36
2870.50,87.37
2870.00,87.37
2869.50,87.36
2869.00,87.36
2868.50,87.37
2868.00,87.39
2867.50,87.41
2867.00,87.44
2866.50,87.47
2866.00,87.50
2865.50,87.51
2865.00,87.53
2864.50,87.54
2864.00,87.56
2863.50,87.58
2863.00,87.59
2862.50,87.61
2862.00,87.63
2861.50,87.66
2861.00,87.68
2860.50,87.70
2860.00,87.70
2859.50,87.70
2859.00,87.71
2858.50,87.72
2858.00,87.72
2857.50,87.73
2857.00,87.74
2856.50,87.76
2856.00,87.77
2855.50,87.79
2855.00,87.81
2854.50,87.84
2854.00,87.87
2853.50,87.89
2853.00,87.90
2852.50,87.91
2852.00,87.92
2851.50,87.93
2851.00,87.94
2850.50,87.95
2850.00,87.96
2849.50,87.97
2849.00,87.98
2848.50,87.99
2848.00,88.01
2847.50,88.03
2847.00,88.05
2846.50,88.07
2846.00,88.08
2845.50,88.09
2845.00,88.09
2844.50,88.10
2844.00,88.11
2843.50,88.12
2843.00,88.15
2842.50,88.18
2842.00,88.20
2841.50,88.21
2841.00,88.22
2840.50,88.23
2840.00,88.24
2839.50,88.26
2839.00,88.28
2838.50,88.28
2838.00,88.29
2837.50,88.30
2837.00,88.31
2836.50,88.33
2836.00,88.35
2835.50,88.35
2835.00,88.37
2834.50,88.38
2834.00,88.40
2833.50,88.42
2833.00,88.44
2832.50,88.46
2832.00,88.49
2831.50,88.52
2831.00,88.53
2830.50,88.55
2830.00,88.56
2829.50,88.57
2829.00,88.58
2828.50,88.59
2828.00,88.59
2827.50,88.61
2827.00,88.63
2826.50,88.65
2826.00,88.68
2825.50,88.71
2825.00,88.73
2824.50,88.74
2824.00,88.75
2823.50,88.76
2823.00,88.78
2822.50,88.80
2822.00,88.81
2821.50,88.81
2821.00,88.82
2820.50,88.83
2820.00,88.84
2819.50,88.85
2819.00,88.86
2818.50,88.87
2818.00,88.90
2817.50,88.92
2817.00,88.94
2816.50,88.95
2816.00,88.96
2815.50,88.98
2815.00,88.99
2814.50,89.01
2814.00,89.02
2813.50,89.03
2813.00,89.05
2812.50,89.06
2812.00,89.07
2811.50,89.09
2811.00,89.10
2810.50,89.11
2810.00,89.12
2809.50,89.13
2809.00,89.15
2808.50,89.16
2808.00,89.19
2807.50,89.22
2807.00,89.24
2806.50,89.27
2806.00,89.29
2805.50,89.30
2805.00,89.32
2804.50,89.32
2804.00,89.33
2803.50,89.33
2803.00,89.34
2802.50,89.35
2802.00,89.36
2801.50,89.38
2801.00,89.40
2800.50,89.41
2800.00,89.41
2799.50,89.42
2799.00,89.43
2798.50,89.45
2798.00,89.47
2797.50,89.48
2797.00,89.50
2796.50,89.52
2796.00,89.54
2795.50,89.56
2795.00,89.58
2794.50,89.59
2794.00,89.61
2793.50,89.62
2793.00,89.63
2792.50,89.63
2792.00,89.63
2791.50,89.64
2791.00,89.67
2790.50,89.70
2790.00,89.72
2789.50,89.74
2789.00,89.74
2788.50,89.75
2788.00,89.75
2787.50,89.76
2787.00,89.77
2786.50,89.78
2786.00,89.80
2785.50,89.80
2785.00,89.81
2784.50,89.83
2784.00,89.84
2783.50,89.86
2783.00,89.89
2782.50,89.91
2782.00,89.92
2781.50,89.94
2781.00,89.95
2780.50,89.97
2780.00,89.97
2779.50,89.97
2779.00,89.98
2778.50,90.00
2778.00,90.02
2777.50,90.04
2777.00,90.04
2776.50,90.05
2776.00,90.07
2775.50,90.09
2775.00,90.11
2774.50,90.13
2774.00,90.15
2773.50,90.17
2773.00,90.18
2772.50,90.18
2772.00,90.18
2771.50,90.19
2771.00,90.21
2770.50,90.23
2770.00,90.24
2769.50,90.26
2769.00,90.27
2768.50,90.28
2768.00,90.29
2767.50,90.29
2767.00,90.30
2766.50,90.32
2766.00,90.34
2765.50,90.34
2765.00,90.35
2764.50,90.37
2764.00,90.38
2763.50,90.39
2763.00,90.40
2762.50,90.41
2762.00,90.43
2761.50,90.45
2761.00,90.46
2760.50,90.48
2760.00,90.49
2759.50,90.51
2759.00,90.54
2758.50,90.56
2758.00,90.57
2757.50,90.57
2757.00,90.56
2756.50,90.56
2756.00,90.57
2755.50,90.60
2755.00,90.63
2754.50,90.65
2754.00,90.66
2753.50,90.67
2753.00,90.68
2752.50,90.70
2752.00,90.71
2751.50,90.72
2751.00,90.72
2750.50,90.74
2750.00,90.75
2749.50,90.75
2749.00,90.76
2748.50,90.77
2748.00,90.78
2747.50,90.80
2747.00,90.81
2746.50,90.82
2746.00,90.82
2745.50,90.83
2745.00,90.85
2744.50,90.87
2744.00,90.89
2743.50,90.90
2743.00,90.91
2742.50,90.91
2742.00,90.91
2741.50,90.92
2741.00,90.92
2740.50,90.93
2740.00,90.94
2739.50,90.96
2739.00,90.98
2738.50,91.01
2738.00,91.04
2737.50,91.05
2737.00,91.05
2736.50,91.06
2736.00,91.07
2735.50,91.09
2735.00,91.11
2734.50,91.12
2734.00,91.13
2733.50,91.14
2733.00,91.14
2732.50,91.16
2732.00,91.18
2731.50,91.20
2731.00,91.21
2730.50,91.21
2730.00,91.21
2729.50,91.21
2729.00,91.22
2728.50,91.22
2728.00,91.23
2727.50,91.24
2727.00,91.25
2726.50,91.26
2726.00,91.27
2725.50,91.28
2725.00,91.29
2724.50,91.30
2724.00,91.31
2723.50,91.32
2723.00,91.34
2722.50,91.36
2722.00,91.39
2721.50,91.40
2721.00,91.41
2720.50,91.41
2720.00,91.42
2719.50,91.43
2719.00,91.44
2718.50,91.46
2718.00,91.47
2717.50,91.48
2717.00,91.50
2716.50,91.50
2716.00,91.51
2715.50,91.51
2715.00,91.53
2714.50,91.55
2714.00,91.56
2713.50,91.57
2713.00,91.57
2712.50,91.57
2712.00,91.57
2711.50,91.58
2711.00,91.60
2710.50,91.61
2710.00,91.61
2709.50,91.62
2709.00,91.62
2708.50,91.64
2708.00,91.65
2707.50,91.66
2707.00,91.67
2706.50,91.67
2706.00,91.67
2705.50,91.68
2705.00,91.70
2704.50,91.73
2704.00,91.76
2703.50,91.77
2703.00,91.77
2702.50,91.76
2702.00,91.75
2701.50,91.74
2701.00,91.75
2700.50,91.76
2700.00,91.78
2699.50,91.80
2699.00,91.82
2698.50,91.83
2698.00,91.84
2697.50,91.84
2697.00,91.84
2696.50,91.84
2696.00,91.85
2695.50,91.86
2695.00,91.87
2694.50,91.89
2694.00,91.90
2693.50,91.91
2693.00,91.93
2692.50,91.94
2692.00,91.95
2691.50,91.96
2691.00,91.97
2690.50,91.97
2690.00,91.98
2689.50,91.98
2689.00,91.97
2688.50,91.96
2688.00,91.96
2687.50,91.97
2687.00,91.98
2686.50,91.99
2686.00,92.00
2685.50,92.02
2685.00,92.04
2684.50,92.06
2684.00,92.08
2683.50,92.09
2683.00,92.10
2682.50,92.11
2682.00,92.11
2681.50,92.10
2681.00,92.10
2680.50,92.10
2680.00,92.11
2679.50,92.12
2679.00,92.12
2678.50,92.13
2678.00,92.13
2677.50,92.13
2677.00,92.14
2676.50,92.15
2676.00,92.17
2675.50,92.18
2675.00,92.19
2674.50,92.20
2674.00,92.21
2673.50,92.21
2673.00,92.21
2672.50,92.22
2672.00,92.22
2671.50,92.23
2671.00,92.24
2670.50,92.25
2670.00,92.25
2669.50,92.26
2669.00,92.26
2668.50,92.27
2668.00,92.27
2667.50,92.27
2667.00,92.26
2666.50,92.26
2666.00,92.27
2665.50,92.27
2665.00,92.28
2664.50,92.27
2664.00,92.27
2663.50,92.26
2663.00,92.26
2662.50,92.27
2662.00,92.28
2661.50,92.28
2661.00,92.28
2660.50,92.29
2660.00,92.29
2659.50,92.30
2659.00,92.31
2658.50,92.32
2658.00,92.31
2657.50,92.31
2657.00,92.32
2656.50,92.34
2656.00,92.35
2655.50,92.35
2655.00,92.33
2654.50,92.33
2654.00,92.33
2653.50,92.35
2653.00,92.36
2652.50,92.37
2652.00,92.37
2651.50,92.36
2651.00,92.36
2650.50,92.36
2650.00,92.36
2649.50,92.37
2649.00,92.38
2648.50,92.40
2648.00,92.41
2647.50,92.42
2647.00,92.43
2646.50,92.42
2646.00,92.41
2645.50,92.40
2645.00,92.40
2644.50,92.40
2644.00,92.40
2643.50,92.40
2643.00,92.40
2642.50,92.40
2642.00,92.41
2641.50,92.41
2641.00,92.42
2640.50,92.43
2640.00,92.44
2639.50,92.45
2639.00,92.45
2638.50,92.44
2638.00,92.44
2637.50,92.44
2637.00,92.44
2636.50,92.44
2636.00,92.44
2635.50,92.44
2635.00,92.44
2634.50,92.44
2634.00,92.46
2633.50,92.47
2633.00,92.48
2632.50,92.48
2632.00,92.48
2631.50,92.47
2631.00,92.46
2630.50,92.46
2630.00,92.46
2629.50,92.48
2629.00,92.50
2628.50,92.52
2628.00,92.52
2627.50,92.50
2627.00,92.49
2626.50,92.49
2626.00,92.49
2625.50,92.49
2625.00,92.49
2624.50,92.49
2624.00,92.49
2623.50,92.50
2623.00,92.52
2622.50,92.54
2622.00,92.55
2621.50,92.54
2621.00,92.53
2620.50,92.52
2620.00,92.52
2619.50,92.54
2619.00,92.55
2618.50,92.56
2618.00,92.56
2617.50,92.55
2617.00,92.56
2616.50,92.56
2616.00,92.58
2615.50,92.59
2615.00,92.60
2614.50,92.60
2614.00,92.59
2613.50,92.57
2613.00,92.56
2612.50,92.56
2612.00,92.56
2611.50,92.57
2611.00,92.58
2610.50,92.59
2610.00,92.60
2609.50,92.61
2609.00,92.60
2608.50,92.59
2608.00,92.58
2607.50,92.57
2607.00,92.58
2606.50,92.59
2606.00,92.60
2605.50,92.60
2605.00,92.60
2604.50,92.60
2604.00,92.59
2603.50,92.58
2603.00,92.57
2602.50,92.57
2602.00,92.58
2601.50,92.59
2601.00,92.60
2600.50,92.60
2600.00,92.59
2599.50,92.60
2599.00,92.61
2598.50,92.62
2598.00,92.62
2597.50,92.61
2597.00,92.59
2596.50,92.58
2596.00,92.57
2595.50,92.58
2595.00,92.60
2594.50,92.62
2594.00,92.62
2593.50,92.62
2593.00,92.61
2592.50,92.61
2592.00,92.60
2591.50,92.59
2591.00,92.58
2590.50,92.57
2590.00,92.57
2589.50,92.57
2589.00,92.58
2588.50,92.60
2588.00,92.61
2587.50,92.61
2587.00,92.61
2586.50,92.62
2586.00,92.63
2585.50,92.63
2585.00,92.61
2584.50,92.60
2584.00,92.59
2583.50,92.59
2583.00,92.60
2582.50,92.62
2582.00,92.64
2581.50,92.66
2581.00,92.66
2580.50,92.66
2580.00,92.63
2579.50,92.59
2579.00,92.56
2578.50,92.55
2578.00,92.55
2577.50,92.55
2577.00,92.54
2576.50,92.55
2576.00,92.56
2575.50,92.56
2575.00,92.57
2574.50,92.57
2574.00,92.57
2573.50,92.56
2573.00,92.55
2572.50,92.55
2572.00,92.55
2571.50,92.56
2571.00,92.56
2570.50,92.56
2570.00,92.56
2569.50,92.58
2569.00,92.59
2568.50,92.61
2568.00,92.62
2567.50,92.63
2567.00,92.62
2566.50,92.60
2566.00,92.57
2565.50,92.56
2565.00,92.56
2564.50,92.57
2564.00,92.58
2563.50,92.59
2563.00,92.60
2562.50,92.62
2562.00,92.62
2561.50,92.62
2561.00,92.60
2560.50,92.58
2560.00,92.56
2559.50,92.54
2559.00,92.54
2558.50,92.55
2558.00,92.57
2557.50,92.59
2557.00,92.61
2556.50,92.63
2556.00,92.63
2555.50,92.62
2555.00,92.59
2554.50,92.57
2554.00,92.54
2553.50,92.53
2553.00,92.52
2552.50,92.53
2552.00,92.54
2551.50,92.55
2551.00,92.55
2550.50,92.54
2550.00,92.52
2549.50,92.51
2549.00,92.51
2548.50,92.52
2548.00,92.52
2547.50,92.52
2547.00,92.51
2546.50,92.50
2546.00,92.50
2545.50,92.49
2545.00,92.48
2544.50,92.47
2544.00,92.45
2543.50,92.43
2543.00,92.42
2542.50,92.42
2542.00,92.44
2541.50,92.48
2541.00,92.50
2540.50,92.51
2540.00,92.49
2539.50,92.48
2539.00,92.47
2538.50,92.47
2538.00,92.48
2537.50,92.48
2537.00,92.47
2536.50,92.46
2536.00,92.44
2535.50,92.43
2535.00,92.42
2534.50,92.43
2534.00,92.43
2533.50,92.43
2533.00,92.44
2532.50,92.45
2532.00,92.48
2531.50,92.49
2531.00,92.48
2530.50,92.46
2530.00,92.45
2529.50,92.44
2529.00,92.45
2528.50,92.46
2528.00,92.46
2527.50,92.46
2527.00,92.46
2526.50,92.45
2526.00,92.44
2525.50,92.44
2525.00,92.43
2524.50,92.42
2524.00,92.42
2523.50,92.42
2523.00,92.41
2522.50,92.40
2522.00,92.40
2521.50,92.40
2521.00,92.41
2520.50,92.43
2520.00,92.44
2519.50,92.44
2519.00,92.42
2518.50,92.41
2518.00,92.41
2517.50,92.43
2517.00,92.47
2516.50,92.49
2516.00,92.50
2515.50,92.48
2515.00,92.45
2514.50,92.43
2514.00,92.43
2513.50,92.44
2513.00,92.44
2512.50,92.44
2512.00,92.45
2511.50,92.45
2511.00,92.45
2510.50,92.44
2510.00,92.43
2509.50,92.42
2509.00,92.42
2508.50,92.43
2508.00,92.43
2507.50,92.44
2507.00,92.45
2506.50,92.46
2506.00,92.46
2505.50,92.45
2505.00,92.43
2504.50,92.42
2504.00,92.40
2503.50,92.40
2503.00,92.41
2502.50,92.43
2502.00,92.44
2501.50,92.45
2501.00,92.44
2500.50,92.43
2500.00,92.42
2499.50,92.42
2499.00,92.43
2498.50,92.44
2498.00,92.45
2497.50,92.47
2497.00,92.48
2496.50,92.48
2496.00,92.48
2495.50,92.46
2495.00,92.45
2494.50,92.43
2494.00,92.41
2493.50,92.40
2493.00,92.39
2492.50,92.40
2492.00,92.43
2491.50,92.45
2491.00,92.46
2490.50,92.45
2490.00,92.44
2489.50,92.43
2489.00,92.43
2488.50,92.44
2488.00,92.44
2487.50,92.45
2487.00,92.45
2486.50,92.45
2486.00,92.45
2485.50,92.45
2485.00,92.46
2484.50,92.47
2484.00,92.48
2483.50,92.50
2483.00,92.51
2482.50,92.50
2482.00,92.50
2481.50,92.49
2481.00,92.49
2480.50,92.48
2480.00,92.47
2479.50,92.45
2479.00,92.44
2478.50,92.44
2478.00,92.46
2477.50,92.47
2477.00,92.48
2476.50,92.48
2476.00,92.48
2475.50,92.49
2475.00,92.50
2474.50,92.52
2474.00,92.53
2473.50,92.53
2473.00,92.53
2472.50,92.54
2472.00,92.55
2471.50,92.57
2471.00,92.59
2470.50,92.60
2470.00,92.59
2469.50,92.57
2469.00,92.55
2468.50,92.55
2468.00,92.56
2467.50,92.57
2467.00,92.58
2466.50,92.57
2466.00,92.56
2465.50,92.56
2465.00,92.57
2464.50,92.57
2464.00,92.57
2463.50,92.56
2463.00,92.57
2462.50,92.57
2462.00,92.58
2461.50,92.59
2461.00,92.59
2460.50,92.59
2460.00,92.60
2459.50,92.59
2459.00,92.59
2458.50,92.59
2458.00,92.58
2457.50,92.57
2457.00,92.57
2456.50,92.58
2456.00,92.58
2455.50,92.58
2455.00,92.58
2454.50,92.59
2454.00,92.61
2453.50,92.62
2453.00,92.64
2452.50,92.65
2452.00,92.66
2451.50,92.65
2451.00,92.65
2450.50,92.65
2450.00,92.65
2449.50,92.66
2449.00,92.66
2448.50,92.65
2448.00,92.65
2447.50,92.66
2447.00,92.68
2446.50,92.71
2446.00,92.73
2445.50,92.73
2445.00,92.71
2444.50,92.70
2444.00,92.69
2443.50,92.70
2443.00,92.71
2442.50,92.72
2442.00,92.73
2441.50,92.74
2441.00,92.75
2440.50,92.76
2440.00,92.78
2439.50,92.78
2439.00,92.78
2438.50,92.77
2438.00,92.77
2437.50,92.78
2437.00,92.80
2436.50,92.82
2436.00,92.83
2435.50,92.83
2435.00,92.84
2434.50,92.84
2434.00,92.84
2433.50,92.85
2433.00,92.85
2432.50,92.85
2432.00,92.86
2431.50,92.88
2431.00,92.91
2430.50,92.93
2430.00,92.93
2429.50,92.92
2429.00,92.91
2428.50,92.90
2428.00,92.89
2427.50,92.89
2427.00,92.90
2426.50,92.92
2426.00,92.93
2425.50,92.93
2425.00,92.94
2424.50,92.96
2424.00,92.99
2423.50,93.02
2423.00,93.04
2422.50,93.04
2422.00,93.03
2421.50,93.02
2421.00,93.00
2420.50,92.98
2420.00,92.98
2419.50,92.98
2419.00,92.99
2418.50,93.02
2418.00,93.06
2417.50,93.09
2417.00,93.10
2416.50,93.08
2416.00,93.07
2415.50,93.06
2415.00,93.06
2414.50,93.06
2414.00,93.07
2413.50,93.07
2413.00,93.07
2412.50,93.08
2412.00,93.07
2411.50,93.07
2411.00,93.07
2410.50,93.09
2410.00,93.11
2409.50,93.11
2409.00,93.11
2408.50,93.10
2408.00,93.10
2407.50,93.12
2407.00,93.14
2406.50,93.15
2406.00,93.16
2405.50,93.17
2405.00,93.17
2404.50,93.17
2404.00,93.17
2403.50,93.18
2403.00,93.20
2402.50,93.21
2402.00,93.22
2401.50,93.23
2401.00,93.24
2400.50,93.25
2400.00,93.26
2399.50,93.26
2399.00,93.27
2398.50,93.27
2398.00,93.26
2397.50,93.24
2397.00,93.25
2396.50,93.26
2396.00,93.28
2395.50,93.28
2395.00,93.28
2394.50,93.27
2394.00,93.27
2393.50,93.27
2393.00,93.27
2392.50,93.28
2392.00,93.29
2391.50,93.31
2391.00,93.33
2390.50,93.34
2390.00,93.36
2389.50,93.37
2389.00,93.37
2388.50,93.37
2388.00,93.37
2387.50,93.38
2387.00,93.38
2386.50,93.38
2386.00,93.38
2385.50,93.38
2385.00,93.39
2384.50,93.40
2384.00,93.42
2383.50,93.44
2383.00,93.45
2382.50,93.45
2382.00,93.42
2381.50,93.40
2381.00,93.40
2380.50,93.42
2380.00,93.44
2379.50,93.46
2379.00,93.46
2378.50,93.46
2378.00,93.46
2377.50,93.46
2377.00,93.48
2376.50,93.50
2376.00,93.52
2375.50,93.52
2375.00,93.52
2374.50,93.52
2374.00,93.53
2373.50,93.54
2373.00,93.54
2372.50,93.56
2372.00,93.57
2371.50,93.58
2371.00,93.59
2370.50,93.60
2370.00,93.61
2369.50,93.62
2369.00,93.63
2368.50,93.62
2368.00,93.61
2367.50,93.61
2367.00,93.61
2366.50,93.62
2366.00,93.63
2365.50,93.63
2365.00,93.62
2364.50,93.61
2364.00,93.61
2363.50,93.62
2363.00,93.63
2362.50,93.63
2362.00,93.63
2361.50,93.62
2361.00,93.61
2360.50,93.62
2360.00,93.63
2359.50,93.65
2359.00,93.66
2358.50,93.67
2358.00,93.67
2357.50,93.67
2357.00,93.66
2356.50,93.65
2356.00,93.65
2355.50,93.64
2355.00,93.64
2354.50,93.64
2354.00,93.64
2353.50,93.64
2353.00,93.66
2352.50,93.68
2352.00,93.69
2351.50,93.69
2351.00,93.70
2350.50,93.70
2350.00,93.69
2349.50,93.69
2349.00,93.68
2348.50,93.68
2348.00,93.70
2347.50,93.73
2347.00,93.75
2346.50,93.76
2346.00,93.75
2345.50,93.75
2345.00,93.75
2344.50,93.76
2344.00,93.77
2343.50,93.78
2343.00,93.79
2342.50,93.79
2342.00,93.78
2341.50,93.78
2341.00,93.77
2340.50,93.76
2340.00,93.77
2339.50,93.79
2339.00,93.81
2338.50,93.82
2338.00,93.82
2337.50,93.81
2337.00,93.81
2336.50,93.81
2336.00,93.81
2335.50,93.81
2335.00,93.81
2334.50,93.82
2334.00,93.83
2333.50,93.84
2333.00,93.85
2332.50,93.85
2332.00,93.84
2331.50,93.84
2331.00,93.85
2330.50,93.86
2330.00,93.88
2329.50,93.88
2329.00,93.87
2328.50,93.86
2328.00,93.86
2327.50,93.86
2327.00,93.83
2326.50,93.78
2326.00,93.72
2325.50,93.66
2325.00,93.63
2324.50,93.62
2324.00,93.64
2323.50,93.66
2323.00,93.69
2322.50,93.71
2322.00,93.73
2321.50,93.75
2321.00,93.77
2320.50,93.79
2320.00,93.80
2319.50,93.80
2319.00,93.80
2318.50,93.80
2318.00,93.79
2317.50,93.79
2317.00,93.79
2316.50,93.80
2316.00,93.81
2315.50,93.83
2315.00,93.85
2314.50,93.86
2314.00,93.86
2313.50,93.88
2313.00,93.90
2312.50,93.91
2312.00,93.91
2311.50,93.90
2311.00,93.89
2310.50,93.88
2310.00,93.88
2309.50,93.88
2309.00,93.89
2308.50,93.89
2308.00,93.90
2307.50,93.91
2307.00,93.93
2306.50,93.93
2306.00,93.93
2305.50,93.93
2305.00,93.93
2304.50,93.94
2304.00,93.93
2303.50,93.92
2303.00,93.92
2302.50,93.93
2302.00,93.95
2301.50,93.97
2301.00,93.97
2300.50,93.97
2300.00,93.95
2299.50,93.93
2299.00,93.91
2298.50,93.90
2298.00,93.90
2297.50,93.90
2297.00,93.91
2296.50,93.92
2296.00,93.92
2295.50,93.92
2295.00,93.92
2294.50,93.93
2294.00,93.93
2293.50,93.93
2293.00,93.92
2292.50,93.91
2292.00,93.91
2291.50,93.92
2291.00,93.93
2290.50,93.94
2290.00,93.92
2289.50,93.89
2289.00,93.86
2288.50,93.85
2288.00,93.86
2287.50,93.88
2287.00,93.90
2286.50,93.91
2286.00,93.91
2285.50,93.91
2285.00,93.92
2284.50,93.97
2284.00,94.01
2283.50,94.05
2283.00,94.05
2282.50,94.02
2282.00,93.99
2281.50,93.97
2281.00,93.98
2280.50,93.99
2280.00,93.99
2279.50,93.97
2279.00,93.97
2278.50,93.99
2278.00,94.04
2277.50,94.08
2277.00,94.10
2276.50,94.10
2276.00,94.09
2275.50,94.08
2275.00,94.08
2274.50,94.08
2274.00,94.08
2273.50,94.08
2273.00,94.08
2272.50,94.10
2272.00,94.10
2271.50,94.10
2271.00,94.09
2270.50,94.10
2270.00,94.11
2269.50,94.10
2269.00,94.09
2268.50,94.08
2268.00,94.08
2267.50,94.09
2267.00,94.10
2266.50,94.12
2266.00,94.15
2265.50,94.20
2265.00,94.24
2264.50,94.27
2264.00,94.27
2263.50,94.26
2263.00,94.25
2262.50,94.24
2262.00,94.24
2261.50,94.24
2261.00,94.23
2260.50,94.21
2260.00,94.19
2259.50,94.20
2259.00,94.21
2258.50,94.23
2258.00,94.24
2257.50,94.24
2257.00,94.22
2256.50,94.19
2256.00,94.16
2255.50,94.15
2255.00,94.16
2254.50,94.20
2254.00,94.23
2253.50,94.24
2253.00,94.24
2252.50,94.24
2252.00,94.24
2251.50,94.23
2251.00,94.22
2250.50,94.21
2250.00,94.22
2249.50,94.24
2249.00,94.25
2248.50,94.26
2248.00,94.27
2247.50,94.28
2247.00,94.29
2246.50,94.29
2246.00,94.28
2245.50,94.26
2245.00,94.25
2244.50,94.26
2244.00,94.27
2243.50,94.27
2243.00,94.27
2242.50,94.25
2242.00,94.23
2241.50,94.21
2241.00,94.21
2240.50,94.22
2240.00,94.24
2239.50,94.27
2239.00,94.29
2238.50,94.31
2238.00,94.33
2237.50,94.34
2237.00,94.33
2236.50,94.32
2236.00,94.31
2235.50,94.31
2235.00,94.33
2234.50,94.35
2234.00,94.37
2233.50,94.38
2233.00,94.38
2232.50,94.38
2232.00,94.38
2231.50,94.38
2231.00,94.35
2230.50,94.33
2230.00,94.31
2229.50,94.31
2229.00,94.31
2228.50,94.30
2228.00,94.30
2227.50,94.32
2227.00,94.34
2226.50,94.35
2226.00,94.35
2225.50,94.35
2225.00,94.36
2224.50,94.37
2224.00,94.39
2223.50,94.41
2223.00,94.42
2222.50,94.42
2222.00,94.39
2221.50,94.36
2221.00,94.32
2220.50,94.30
2220.00,94.32
2219.50,94.36
2219.00,94.42
2218.50,94.46
2218.00,94.48
2217.50,94.45
2217.00,94.40
2216.50,94.35
2216.00,94.35
2215.50,94.39
2215.00,94.42
2214.50,94.42
2214.00,94.40
2213.50,94.39
2213.00,94.40
2212.50,94.44
2212.00,94.48
2211.50,94.51
2211.00,94.51
2210.50,94.52
2210.00,94.54
2209.50,94.54
2209.00,94.52
2208.50,94.47
2208.00,94.43
2207.50,94.41
2207.00,94.42
2206.50,94.45
2206.00,94.47
2205.50,94.49
2205.00,94.49
2204.50,94.48
2204.00,94.46
2203.50,94.47
2203.00,94.49
2202.50,94.49
2202.00,94.47
2201.50,94.44
2201.00,94.44
2200.50,94.45
2200.00,94.45
2199.50,94.45
2199.00,94.44
2198.50,94.44
2198.00,94.45
2197.50,94.46
2197.00,94.48
2196.50,94.48
2196.00,94.48
2195.50,94.49
2195.00,94.51
2194.50,94.54
2194.00,94.54
2193.50,94.51
2193.00,94.47
2192.50,94.44
2192.00,94.44
2191.50,94.48
2191.00,94.52
2190.50,94.54
2190.00,94.53
2189.50,94.54
2189.00,94.55
2188.50,94.55
2188.00,94.50
2187.50,94.43
2187.00,94.39
2186.50,94.39
2186.00,94.44
2185.50,94.49
2185.00,94.49
2184.50,94.44
2184.00,94.37
2183.50,94.35
2183.00,94.40
2182.50,94.50
2182.00,94.60
2181.50,94.66
2181.00,94.67
2180.50,94.66
2180.00,94.62
2179.50,94.55
2179.00,94.49
2178.50,94.46
2178.00,94.48
2177.50,94.52
2177.00,94.57
2176.50,94.63
2176.00,94.66
2175.50,94.66
2175.00,94.65
2174.50,94.64
2174.00,94.65
2173.50,94.67
2173.00,94.67
2172.50,94.64
2172.00,94.59
2171.50,94.55
2171.00,94.56
2170.50,94.60
2170.00,94.63
2169.50,94.60
2169.00,94.54
2168.50,94.47
2168.00,94.43
2167.50,94.43
2167.00,94.44
2166.50,94.45
2166.00,94.42
2165.50,94.36
2165.00,94.30
2164.50,94.27
2164.00,94.28
2163.50,94.33
2163.00,94.39
2162.50,94.43
2162.00,94.43
2161.50,94.41
2161.00,94.41
2160.50,94.48
2160.00,94.60
2159.50,94.76
2159.00,94.93
2158.50,95.11
2158.00,95.27
2157.50,95.36
2157.00,95.35
2156.50,95.24
2156.00,95.11
2155.50,95.01
2155.00,94.98
2154.50,94.99
2154.00,95.01
2153.50,95.03
2153.00,95.06
2152.50,95.08
2152.00,95.07
2151.50,95.02
2151.00,94.97
2150.50,94.93
2150.00,94.91
2149.50,94.90
2149.00,94.91
2148.50,94.95
2148.00,94.99
2147.50,94.99
2147.00,94.97
2146.50,94.93
2146.00,94.91
2145.50,94.91
2145.00,94.92
2144.50,94.93
2144.00,94.95
2143.50,94.96
2143.00,94.96
2142.50,94.97
2142.00,94.98
2141.50,94.97
2141.00,94.95
2140.50,94.93
2140.00,94.91
2139.50,94.89
2139.00,94.87
2138.50,94.85
2138.00,94.84
2137.50,94.81
2137.00,94.80
2136.50,94.82
2136.00,94.88
2135.50,94.97
2135.00,95.05
2134.50,95.11
2134.00,95.12
2133.50,95.11
2133.00,95.07
2132.50,95.04
2132.00,95.02
2131.50,95.02
2131.00,95.01
2130.50,94.96
2130.00,94.89
2129.50,94.85
2129.00,94.85
2128.50,94.89
2128.00,94.94
2127.50,94.96
2127.00,94.96
2126.50,94.93
2126.00,94.92
2125.50,94.93
2125.00,94.94
2124.50,94.93
2124.00,94.90
2123.50,94.85
2123.00,94.81
2122.50,94.80
2122.00,94.82
2121.50,94.85
2121.00,94.88
2120.50,94.87
2120.00,94.83
2119.50,94.77
2119.00,94.74
2118.50,94.75
2118.00,94.77
2117.50,94.79
2117.00,94.80
2116.50,94.81
2116.00,94.82
2115.50,94.81
2115.00,94.79
2114.50,94.76
2114.00,94.74
2113.50,94.73
2113.00,94.72
2112.50,94.71
2112.00,94.70
2111.50,94.69
2111.00,94.69
2110.50,94.70
2110.00,94.71
2109.50,94.73
2109.00,94.75
2108.50,94.77
2108.00,94.79
2107.50,94.79
2107.00,94.79
2106.50,94.77
2106.00,94.76
2105.50,94.75
2105.00,94.74
2104.50,94.75
2104.00,94.76
2103.50,94.78
2103.00,94.81
2102.50,94.84
2102.00,94.84
2101.50,94.81
2101.00,94.76
2100.50,94.73
2100.00,94.73
2099.50,94.75
2099.00,94.79
2098.50,94.81
2098.00,94.82
2097.50,94.81
2097.00,94.80
2096.50,94.80
2096.00,94.81
2095.50,94.84
2095.00,94.85
2094.50,94.83
2094.00,94.80
2093.50,94.78
2093.00,94.79
2092.50,94.80
2092.00,94.82
2091.50,94.82
2091.00,94.82
2090.50,94.83
2090.00,94.81
2089.50,94.78
2089.00,94.74
2088.50,94.70
2088.00,94.68
2087.50,94.67
2087.00,94.67
2086.50,94.68
2086.00,94.68
2085.50,94.69
2085.00,94.70
2084.50,94.71
2084.00,94.73
2083.50,94.74
2083.00,94.73
2082.50,94.72
2082.00,94.72
2081.50,94.73
2081.00,94.72
2080.50,94.69
2080.00,94.66
2079.50,94.63
2079.00,94.63
2078.50,94.64
2078.00,94.66
2077.50,94.68
2077.00,94.70
2076.50,94.73
2076.00,94.74
2075.50,94.74
2075.00,94.72
2074.50,94.70
2074.00,94.69
2073.50,94.69
2073.00,94.71
2072.50,94.72
2072.00,94.74
2071.50,94.75
2071.00,94.76
2070.50,94.76
2070.00,94.74
2069.50,94.71
2069.00,94.69
2068.50,94.70
2068.00,94.74
2067.50,94.78
2067.00,94.79
2066.50,94.79
2066.00,94.78
2065.50,94.78
2065.00,94.79
2064.50,94.80
2064.00,94.79
2063.50,94.76
2063.00,94.72
2062.50,94.70
2062.00,94.70
2061.50,94.74
2061.00,94.79
2060.50,94.82
2060.00,94.80
2059.50,94.75
2059.00,94.70
2058.50,94.69
2058.00,94.69
2057.50,94.69
2057.00,94.68
2056.50,94.70
2056.00,94.74
2055.50,94.80
2055.00,94.83
2054.50,94.84
2054.00,94.82
2053.50,94.77
2053.00,94.69
2052.50,94.59
2052.00,94.49
2051.50,94.41
2051.00,94.39
2050.50,94.43
2050.00,94.51
2049.50,94.60
2049.00,94.68
2048.50,94.73
2048.00,94.75
2047.50,94.75
2047.00,94.74
2046.50,94.71
2046.00,94.67
2045.50,94.66
2045.00,94.67
2044.50,94.71
2044.00,94.74
2043.50,94.74
2043.00,94.72
2042.50,94.70
2042.00,94.69
2041.50,94.69
2041.00,94.69
2040.50,94.68
2040.00,94.66
2039.50,94.65
2039.00,94.68
2038.50,94.71
2038.00,94.73
2037.50,94.74
2037.00,94.74
2036.50,94.76
2036.00,94.78
2035.50,94.80
2035.00,94.81
2034.50,94.80
2034.00,94.75
2033.50,94.69
2033.00,94.63
2032.50,94.61
2032.00,94.63
2031.50,94.66
2031.00,94.70
2030.50,94.74
2030.00,94.77
2029.50,94.80
2029.00,94.82
2028.50,94.85
2028.00,94.87
2027.50,94.89
2027.00,94.89
2026.50,94.88
2026.00,94.86
2025.50,94.84
2025.00,94.82
2024.50,94.81
2024.00,94.80
2023.50,94.78
2023.00,94.77
2022.50,94.77
2022.00,94.78
2021.50,94.77
2021.00,94.77
2020.50,94.79
2020.00,94.83
2019.50,94.86
2019.00,94.87
2018.50,94.86
2018.00,94.84
2017.50,94.79
2017.00,94.71
2016.50,94.62
2016.00,94.55
2015.50,94.51
2015.00,94.50
2014.50,94.53
2014.00,94.59
2013.50,94.67
2013.00,94.73
2012.50,94.74
2012.00,94.71
2011.50,94.69
2011.00,94.69
2010.50,94.70
2010.00,94.67
2009.50,94.63
2009.00,94.61
2008.50,94.64
2008.00,94.72
2007.50,94.83
2007.00,94.95
2006.50,95.03
2006.00,95.04
2005.50,94.98
2005.00,94.90
2004.50,94.82
2004.00,94.77
2003.50,94.73
2003.00,94.70
2002.50,94.69
2002.00,94.69
2001.50,94.69
2001.00,94.66
2000.50,94.63
2000.00,94.60
1999.50,94.60
1999.00,94.63
1998.50,94.65
1998.00,94.65
1997.50,94.62
1997.00,94.59
1996.50,94.59
1996.00,94.61
1995.50,94.62
1995.00,94.61
1994.50,94.57
1994.00,94.55
1993.50,94.55
1993.00,94.56
1992.50,94.55
1992.00,94.53
1991.50,94.52
1991.00,94.52
1990.50,94.52
1990.00,94.52
1989.50,94.51
1989.00,94.51
1988.50,94.52
1988.00,94.56
1987.50,94.58
1987.00,94.58
1986.50,94.55
1986.00,94.52
1985.50,94.49
1985.00,94.46
1984.50,94.43
1984.00,94.39
1983.50,94.33
1983.00,94.26
1982.50,94.19
1982.00,94.15
1981.50,94.12
1981.00,94.10
1980.50,94.09
1980.00,94.12
1979.50,94.19
1979.00,94.31
1978.50,94.45
1978.00,94.57
1977.50,94.65
1977.00,94.69
1976.50,94.72
1976.00,94.74
1975.50,94.75
1975.00,94.72
1974.50,94.67
1974.00,94.63
1973.50,94.62
1973.00,94.64
1972.50,94.65
1972.00,94.65
1971.50,94.63
1971.00,94.61
1970.50,94.60
1970.00,94.60
1969.50,94.61
1969.00,94.63
1968.50,94.67
1968.00,94.70
1967.50,94.71
1967.00,94.70
1966.50,94.69
1966.00,94.68
1965.50,94.65
1965.00,94.60
1964.50,94.55
1964.00,94.55
1963.50,94.60
1963.00,94.68
1962.50,94.72
1962.00,94.70
1961.50,94.65
1961.00,94.59
1960.50,94.56
1960.00,94.56
1959.50,94.57
1959.00,94.59
1958.50,94.60
1958.00,94.61
1957.50,94.63
1957.00,94.66
1956.50,94.67
1956.00,94.66
1955.50,94.63
1955.00,94.59
1954.50,94.56
1954.00,94.56
1953.50,94.57
1953.00,94.57
1952.50,94.56
1952.00,94.55
1951.50,94.57
1951.00,94.61
1950.50,94.65
1950.00,94.65
1949.50,94.64
1949.00,94.62
1948.50,94.61
1948.00,94.61
1947.50,94.62
1947.00,94.62
1946.50,94.60
1946.00,94.56
1945.50,94.53
1945.00,94.53
1944.50,94.56
1944.00,94.61
1943.50,94.63
1943.00,94.62
1942.50,94.58
1942.00,94.54
1941.50,94.53
1941.00,94.51
1940.50,94.49
1940.00,94.46
1939.50,94.45
1939.00,94.46
1938.50,94.50
1938.00,94.54
1937.50,94.57
1937.00,94.57
1936.50,94.55
1936.00,94.52
1935.50,94.51
1935.00,94.51
1934.50,94.51
1934.00,94.49
1933.50,94.47
1933.00,94.45
1932.50,94.44
1932.00,94.44
1931.50,94.44
1931.00,94.45
1930.50,94.48
1930.00,94.50
1929.50,94.52
1929.00,94.53
1928.50,94.52
1928.00,94.50
1927.50,94.48
1927.00,94.46
1926.50,94.46
1926.00,94.46
1925.50,94.46
1925.00,94.46
1924.50,94.48
1924.00,94.49
1923.50,94.48
1923.00,94.47
1922.50,94.45
1922.00,94.44
1921.50,94.43
1921.00,94.42
1920.50,94.41
1920.00,94.41
1919.50,94.42
1919.00,94.45
1918.50,94.47
1918.00,94.48
1917.50,94.46
1917.00,94.42
1916.50,94.38
1916.00,94.34
1915.50,94.32
1915.00,94.30
1914.50,94.29
1914.00,94.28
1913.50,94.27
1913.00,94.27
1912.50,94.28
1912.00,94.30
1911.50,94.33
1911.00,94.36
1910.50,94.37
1910.00,94.36
1909.50,94.32
1909.00,94.29
1908.50,94.27
1908.00,94.26
1907.50,94.26
1907.00,94.26
1906.50,94.25
1906.00,94.25
1905.50,94.26
1905.00,94.26
1904.50,94.26
1904.00,94.25
1903.50,94.24
1903.00,94.24
1902.50,94.25
1902.00,94.24
1901.50,94.22
1901.00,94.20
1900.50,94.18
1900.00,94.16
1899.50,94.15
1899.00,94.15
1898.50,94.16
1898.00,94.18
1897.50,94.18
1897.00,94.16
1896.50,94.13
1896.00,94.12
1895.50,94.13
1895.00,94.14
1894.50,94.13
1894.00,94.11
1893.50,94.07
1893.00,94.05
1892.50,94.04
1892.00,94.03
1891.50,94.02
1891.00,94.01
1890.50,94.02
1890.00,94.04
1889.50,94.05
1889.00,94.05
1888.50,94.03
1888.00,94.01
1887.50,94.00
1887.00,94.01
1886.50,94.02
1886.00,94.03
1885.50,94.03
1885.00,94.02
1884.50,93.99
1884.00,93.96
1883.50,93.94
1883.00,93.93
1882.50,93.92
1882.00,93.92
1881.50,93.91
1881.00,93.90
1880.50,93.89
1880.00,93.88
1879.50,93.87
1879.00,93.85
1878.50,93.83
1878.00,93.82
1877.50,93.81
1877.00,93.83
1876.50,93.84
1876.00,93.85
1875.50,93.84
1875.00,93.83
1874.50,93.82
1874.00,93.82
1873.50,93.82
1873.00,93.82
1872.50,93.82
1872.00,93.81
1871.50,93.81
1871.00,93.83
1870.50,93.87
1870.00,93.91
1869.50,93.93
1869.00,93.91
1868.50,93.88
1868.00,93.84
1867.50,93.80
1867.00,93.77
1866.50,93.76
1866.00,93.75
1865.50,93.75
1865.00,93.75
1864.50,93.74
1864.00,93.73
1863.50,93.72
1863.00,93.72
1862.50,93.71
1862.00,93.71
1861.50,93.71
1861.00,93.72
1860.50,93.71
1860.00,93.71
1859.50,93.70
1859.00,93.69
1858.50,93.67
1858.00,93.66
1857.50,93.65
1857.00,93.65
1856.50,93.65
1856.00,93.66
1855.50,93.66
1855.00,93.65
1854.50,93.64
1854.00,93.63
1853.50,93.63
1853.00,93.62
1852.50,93.61
1852.00,93.59
1851.50,93.58
1851.00,93.57
1850.50,93.57
1850.00,93.60
1849.50,93.63
1849.00,93.65
1848.50,93.65
1848.00,93.65
1847.50,93.63
1847.00,93.62
1846.50,93.62
1846.00,93.66
1845.50,93.75
1845.00,93.84
1844.50,93.86
1844.00,93.80
1843.50,93.69
1843.00,93.62
1842.50,93.59
1842.00,93.58
1841.50,93.59
1841.00,93.59
1840.50,93.59
1840.00,93.59
1839.50,93.57
1839.00,93.56
1838.50,93.56
1838.00,93.56
1837.50,93.56
1837.00,93.55
1836.50,93.54
1836.00,93.53
1835.50,93.52
1835.00,93.51
1834.50,93.51
1834.00,93.50
1833.50,93.50
1833.00,93.50
1832.50,93.51
1832.00,93.53
1831.50,93.56
1831.00,93.59
1830.50,93.63
1830.00,93.63
1829.50,93.61
1829.00,93.56
1828.50,93.51
1828.00,93.48
1827.50,93.46
1827.00,93.48
1826.50,93.53
1826.00,93.58
1825.50,93.60
1825.00,93.56
1824.50,93.50
1824.00,93.45
1823.50,93.42
1823.00,93.40
1822.50,93.39
1822.00,93.38
1821.50,93.37
1821.00,93.38
1820.50,93.39
1820.00,93.39
1819.50,93.40
1819.00,93.40
1818.50,93.40
1818.00,93.41
1817.50,93.42
1817.00,93.42
1816.50,93.41
1816.00,93.41
1815.50,93.39
1815.00,93.37
1814.50,93.35
1814.00,93.34
1813.50,93.34
1813.00,93.34
1812.50,93.33
1812.00,93.34
1811.50,93.34
1811.00,93.34
1810.50,93.33
1810.00,93.31
1809.50,93.29
1809.00,93.29
1808.50,93.29
1808.00,93.29
1807.50,93.29
1807.00,93.28
1806.50,93.27
1806.00,93.26
1805.50,93.26
1805.00,93.25
1804.50,93.24
1804.00,93.24
1803.50,93.24
1803.00,93.25
1802.50,93.26
1802.00,93.26
1801.50,93.24
1801.00,93.23
1800.50,93.24
1800.00,93.25
1799.50,93.25
1799.00,93.23
1798.50,93.20
1798.00,93.18
1797.50,93.17
1797.00,93.16
1796.50,93.15
1796.00,93.14
1795.50,93.13
1795.00,93.13
1794.50,93.16
1794.00,93.23
1793.50,93.32
1793.00,93.36
1792.50,93.33
1792.00,93.27
1791.50,93.20
1791.00,93.15
1790.50,93.11
1790.00,93.08
1789.50,93.05
1789.00,93.04
1788.50,93.03
1788.00,93.02
1787.50,93.00
1787.00,93.00
1786.50,93.02
1786.00,93.06
1785.50,93.09
1785.00,93.08
1784.50,93.05
1784.00,93.00
1783.50,92.98
1783.00,92.96
1782.50,92.96
1782.00,92.97
1781.50,92.97
1781.00,92.98
1780.50,92.97
1780.00,92.94
1779.50,92.92
1779.00,92.90
1778.50,92.88
1778.00,92.88
1777.50,92.88
1777.00,92.89
1776.50,92.91
1776.00,92.92
1775.50,92.92
1775.00,92.92
1774.50,92.96
1774.00,93.06
1773.50,93.17
1773.00,93.23
1772.50,93.20
1772.00,93.11
1771.50,93.00
1771.00,92.90
1770.50,92.83
1770.00,92.81
1769.50,92.85
1769.00,92.91
1768.50,92.94
1768.00,92.91
1767.50,92.84
1767.00,92.77
1766.50,92.72
1766.00,92.70
1765.50,92.68
1765.00,92.68
1764.50,92.68
1764.00,92.70
1763.50,92.74
1763.00,92.81
1762.50,92.87
1762.00,92.87
1761.50,92.81
1761.00,92.73
1760.50,92.66
1760.00,92.63
1759.50,92.62
1759.00,92.62
1758.50,92.64
1758.00,92.67
1757.50,92.69
1757.00,92.69
1756.50,92.65
1756.00,92.60
1755.50,92.55
1755.00,92.52
1754.50,92.51
1754.00,92.50
1753.50,92.51
1753.00,92.58
1752.50,92.69
1752.00,92.78
1751.50,92.80
1751.00,92.74
1750.50,92.65
1750.00,92.59
1749.50,92.57
1749.00,92.55
1748.50,92.53
1748.00,92.51
1747.50,92.49
1747.00,92.47
1746.50,92.44
1746.00,92.42
1745.50,92.40
1745.00,92.41
1744.50,92.43
1744.00,92.44
1743.50,92.43
1743.00,92.39
1742.50,92.36
1742.00,92.35
1741.50,92.38
1741.00,92.45
1740.50,92.52
1740.00,92.52
1739.50,92.46
1739.00,92.37
1738.50,92.30
1738.00,92.26
1737.50,92.24
1737.00,92.24
1736.50,92.29
1736.00,92.41
1735.50,92.58
1735.00,92.75
1734.50,92.84
1734.00,92.78
1733.50,92.62
1733.00,92.42
1732.50,92.25
1732.00,92.15
1731.50,92.12
1731.00,92.12
1730.50,92.13
1730.00,92.12
1729.50,92.08
1729.00,92.03
1728.50,91.99
1728.00,91.97
1727.50,91.96
1727.00,91.95
1726.50,91.94
1726.00,91.92
1725.50,91.90
1725.00,91.89
1724.50,91.89
1724.00,91.88
1723.50,91.87
1723.00,91.85
1722.50,91.82
1722.00,91.79
1721.50,91.76
1721.00,91.75
1720.50,91.76
1720.00,91.82
1719.50,91.92
1719.00,92.07
1718.50,92.21
1718.00,92.28
1717.50,92.21
1717.00,92.05
1716.50,91.90
1716.00,91.83
1715.50,91.81
1715.00,91.78
1714.50,91.71
1714.00,91.62
1713.50,91.55
1713.00,91.49
1712.50,91.45
1712.00,91.42
1711.50,91.41
1711.00,91.40
1710.50,91.38
1710.00,91.36
1709.50,91.35
1709.00,91.33
1708.50,91.32
1708.00,91.32
1707.50,91.35
1707.00,91.37
1706.50,91.36
1706.00,91.33
1705.50,91.31
1705.00,91.30
1704.50,91.27
1704.00,91.22
1703.50,91.17
1703.00,91.14
1702.50,91.18
1702.00,91.33
1701.50,91.57
1701.00,91.79
1700.50,91.84
1700.00,91.67
1699.50,91.39
1699.00,91.14
1698.50,91.00
1698.00,90.98
1697.50,91.08
1697.00,91.28
1696.50,91.45
1696.00,91.46
1695.50,91.26
1695.00,90.99
1694.50,90.78
1694.00,90.66
1693.50,90.60
1693.00,90.56
1692.50,90.53
1692.00,90.52
1691.50,90.52
1691.00,90.52
1690.50,90.51
1690.00,90.49
1689.50,90.46
1689.00,90.43
1688.50,90.39
1688.00,90.34
1687.50,90.30
1687.00,90.30
1686.50,90.42
1686.00,90.64
1685.50,90.87
1685.00,90.97
1684.50,90.89
1684.00,90.69
1683.50,90.47
1683.00,90.28
1682.50,90.13
1682.00,90.04
1681.50,90.00
1681.00,89.98
1680.50,89.96
1680.00,89.92
1679.50,89.88
1679.00,89.84
1678.50,89.82
1678.00,89.80
1677.50,89.79
1677.00,89.83
1676.50,89.92
1676.00,90.00
1675.50,90.01
1675.00,89.92
1674.50,89.78
1674.00,89.65
1673.50,89.59
1673.00,89.58
1672.50,89.59
1672.00,89.60
1671.50,89.60
1671.00,89.61
1670.50,89.65
1670.00,89.70
1669.50,89.70
1669.00,89.60
1668.50,89.47
1668.00,89.34
1667.50,89.27
1667.00,89.23
1666.50,89.21
1666.00,89.19
1665.50,89.17
1665.00,89.17
1664.50,89.19
1664.00,89.23
1663.50,89.28
1663.00,89.28
1662.50,89.22
1662.00,89.13
1661.50,89.05
1661.00,89.00
1660.50,88.97
1660.00,88.95
1659.50,88.93
1659.00,88.92
1658.50,88.91
1658.00,88.89
1657.50,88.87
1657.00,88.86
1656.50,88.87
1656.00,88.93
1655.50,89.05
1655.00,89.23
1654.50,89.47
1654.00,89.73
1653.50,89.89
1653.00,89.84
1652.50,89.56
1652.00,89.18
1651.50,88.88
1651.00,88.70
1650.50,88.62
1650.00,88.59
1649.50,88.61
1649.00,88.66
1648.50,88.71
1648.00,88.76
1647.50,88.82
1647.00,88.88
1646.50,88.92
1646.00,88.86
1645.50,88.72
1645.00,88.56
1644.50,88.45
1644.00,88.40
1643.50,88.37
1643.00,88.35
1642.50,88.34
1642.00,88.33
1641.50,88.32
1641.00,88.32
1640.50,88.31
1640.00,88.30
1639.50,88.30
1639.00,88.31
1638.50,88.34
1638.00,88.37
1637.50,88.44
1637.00,88.55
1636.50,88.71
1636.00,88.81
1635.50,88.78
1635.00,88.61
1634.50,88.41
1634.00,88.28
1633.50,88.21
1633.00,88.20
1632.50,88.19
1632.00,88.20
1631.50,88.20
1631.00,88.20
1630.50,88.20
1630.00,88.22
1629.50,88.25
1629.00,88.30
1628.50,88.34
1628.00,88.36
1627.50,88.35
1627.00,88.33
1626.50,88.32
1626.00,88.33
1625.50,88.37
1625.00,88.44
1624.50,88.52
1624.00,88.59
1623.50,88.60
1623.00,88.55
1622.50,88.50
1622.00,88.48
1621.50,88.50
1621.00,88.53
1620.50,88.56
1620.00,88.60
1619.50,88.64
1619.00,88.71
1618.50,88.85
1618.00,89.08
1617.50,89.33
1617.00,89.48
1616.50,89.45
1616.00,89.32
1615.50,89.21
1615.00,89.16
1614.50,89.18
1614.00,89.23
1613.50,89.29
1613.00,89.35
1612.50,89.41
1612.00,89.47
1611.50,89.54
1611.00,89.62
1610.50,89.70
1610.00,89.77
1609.50,89.83
1609.00,89.87
1608.50,89.92
1608.00,89.98
1607.50,90.05
1607.00,90.11
1606.50,90.16
1606.00,90.20
1605.50,90.25
1605.00,90.29
1604.50,90.34
1604.00,90.40
1603.50,90.45
1603.00,90.51
1602.50,90.57
1602.00,90.63
1601.50,90.68
1601.00,90.72
1600.50,90.76
1600.00,90.80
1599.50,90.85
1599.00,90.90
1598.50,90.93
1598.00,90.97
1597.50,91.01
1597.00,91.05
1596.50,91.10
1596.00,91.14
1595.50,91.18
1595.00,91.23
1594.50,91.27
1594.00,91.31
1593.50,91.34
1593.00,91.37
1592.50,91.39
1592.00,91.42
1591.50,91.46
1591.00,91.50
1590.50,91.54
1590.00,91.57
1589.50,91.61
1589.00,91.64
1588.50,91.66
1588.00,91.69
1587.50,91.72
1587.00,91.75
1586.50,91.78
1586.00,91.80
1585.50,91.82
1585.00,91.85
1584.50,91.88
1584.00,91.91
1583.50,91.94
1583.00,91.97
1582.50,91.99
1582.00,92.01
1581.50,92.03
1581.00,92.06
1580.50,92.09
1580.00,92.11
1579.50,92.14
1579.00,92.17
1578.50,92.23
1578.00,92.35
1577.50,92.56
1577.00,92.79
1576.50,92.91
1576.00,92.85
1575.50,92.66
1575.00,92.48
1574.50,92.38
1574.00,92.36
1573.50,92.38
1573.00,92.40
1572.50,92.42
1572.00,92.45
1571.50,92.52
1571.00,92.63
1570.50,92.74
1570.00,92.80
1569.50,92.78
1569.00,92.71
1568.50,92.64
1568.00,92.60
1567.50,92.58
1567.00,92.59
1566.50,92.61
1566.00,92.66
1565.50,92.70
1565.00,92.73
1564.50,92.73
1564.00,92.72
1563.50,92.72
1563.00,92.73
1562.50,92.77
1562.00,92.88
1561.50,93.11
1561.00,93.39
1560.50,93.62
1560.00,93.76
1559.50,93.81
1559.00,93.81
1558.50,93.74
1558.00,93.57
1557.50,93.33
1557.00,93.11
1556.50,92.99
1556.00,93.00
1555.50,93.11
1555.00,93.23
1554.50,93.26
1554.00,93.20
1553.50,93.09
1553.00,93.01
1552.50,92.99
1552.00,93.01
1551.50,93.05
1551.00,93.11
1550.50,93.16
1550.00,93.17
1549.50,93.14
1549.00,93.10
1548.50,93.07
1548.00,93.06
1547.50,93.07
1547.00,93.11
1546.50,93.20
1546.00,93.29
1545.50,93.35
1545.00,93.35
1544.50,93.33
1544.00,93.34
1543.50,93.43
1543.00,93.56
1542.50,93.66
1542.00,93.71
1541.50,93.74
1541.00,93.81
1540.50,93.94
1540.00,94.06
1539.50,94.05
1539.00,93.90
1538.50,93.66
1538.00,93.45
1537.50,93.31
1537.00,93.27
1536.50,93.27
1536.00,93.29
1535.50,93.35
1535.00,93.45
1534.50,93.55
1534.00,93.61
1533.50,93.58
1533.00,93.50
1532.50,93.42
1532.00,93.37
1531.50,93.34
1531.00,93.32
1530.50,93.33
1530.00,93.35
1529.50,93.40
1529.00,93.44
1528.50,93.48
1528.00,93.50
1527.50,93.50
1527.00,93.53
1526.50,93.59
1526.00,93.65
1525.50,93.66
1525.00,93.61
1524.50,93.56
1524.00,93.57
1523.50,93.64
1523.00,93.76
1522.50,93.91
1522.00,94.05
1521.50,94.10
1521.00,94.03
1520.50,93.86
1520.00,93.69
1519.50,93.58
1519.00,93.56
1518.50,93.62
1518.00,93.71
1517.50,93.76
1517.00,93.75
1516.50,93.69
1516.00,93.64
1515.50,93.60
1515.00,93.57
1514.50,93.54
1514.00,93.55
1513.50,93.60
1513.00,93.66
1512.50,93.69
1512.00,93.68
1511.50,93.65
1511.00,93.65
1510.50,93.68
1510.00,93.72
1509.50,93.77
1509.00,93.84
1508.50,93.98
1508.00,94.15
1507.50,94.32
1507.00,94.40
1506.50,94.37
1506.00,94.26
1505.50,94.08
1505.00,93.87
1504.50,93.71
1504.00,93.62
1503.50,93.60
1503.00,93.61
1502.50,93.61
1502.00,93.62
1501.50,93.62
1501.00,93.63
1500.50,93.67
1500.00,93.73
1499.50,93.79
1499.00,93.82
1498.50,93.81
1498.00,93.82
1497.50,93.89
1497.00,94.00
1496.50,94.05
1496.00,93.98
1495.50,93.84
1495.00,93.72
1494.50,93.67
1494.00,93.65
1493.50,93.66
1493.00,93.67
1492.50,93.72
1492.00,93.79
1491.50,93.87
1491.00,93.94
1490.50,93.96
1490.00,93.94
1489.50,93.89
1489.00,93.86
1488.50,93.86
1488.00,93.87
1487.50,93.86
1487.00,93.82
1486.50,93.77
1486.00,93.73
1485.50,93.71
1485.00,93.71
1484.50,93.72
1484.00,93.72
1483.50,93.73
1483.00,93.74
1482.50,93.75
1482.00,93.76
1481.50,93.77
1481.00,93.76
1480.50,93.75
1480.00,93.73
1479.50,93.73
1479.00,93.73
1478.50,93.74
1478.00,93.77
1477.50,93.83
1477.00,93.89
1476.50,93.92
1476.00,93.91
1475.50,93.88
1475.00,93.91
1474.50,93.99
1474.00,94.10
1473.50,94.18
1473.00,94.21
1472.50,94.19
1472.00,94.11
1471.50,94.00
1471.00,93.89
1470.50,93.83
1470.00,93.81
1469.50,93.81
1469.00,93.80
1468.50,93.80
1468.00,93.80
1467.50,93.81
1467.00,93.82
1466.50,93.87
1466.00,93.96
1465.50,94.04
1465.00,94.05
1464.50,94.00
1464.00,93.91
1463.50,93.85
1463.00,93.82
1462.50,93.82
1462.00,93.83
1461.50,93.85
1461.00,93.86
1460.50,93.89
1460.00,93.94
1459.50,94.01
1459.00,94.11
1458.50,94.26
1458.00,94.44
1457.50,94.60
1457.00,94.62
1456.50,94.47
1456.00,94.25
1455.50,94.06
1455.00,93.95
1454.50,93.90
1454.00,93.87
1453.50,93.86
1453.00,93.86
1452.50,93.88
1452.00,93.88
1451.50,93.87
1451.00,93.86
1450.50,93.86
1450.00,93.87
1449.50,93.90
1449.00,93.96
1448.50,93.99
1448.00,93.99
1447.50,93.95
1447.00,93.90
1446.50,93.86
1446.00,93.85
1445.50,93.84
1445.00,93.84
1444.50,93.84
1444.00,93.85
1443.50,93.85
1443.00,93.85
1442.50,93.85
1442.00,93.85
1441.50,93.86
1441.00,93.87
1440.50,93.88
1440.00,93.89
1439.50,93.89
1439.00,93.92
1438.50,93.99
1438.00,94.12
1437.50,94.27
1437.00,94.34
1436.50,94.27
1436.00,94.12
1435.50,93.98
1435.00,93.90
1434.50,93.87
1434.00,93.87
1433.50,93.87
1433.00,93.87
1432.50,93.88
1432.00,93.89
1431.50,93.91
1431.00,93.94
1430.50,93.97
1430.00,93.97
1429.50,93.94
1429.00,93.91
1428.50,93.88
1428.00,93.88
1427.50,93.87
1427.00,93.88
1426.50,93.88
1426.00,93.88
1425.50,93.89
1425.00,93.91
1424.50,93.94
1424.00,93.94
1423.50,93.92
1423.00,93.90
1422.50,93.88
1422.00,93.87
1421.50,93.89
1421.00,93.97
1420.50,94.11
1420.00,94.24
1419.50,94.27
1419.00,94.19
1418.50,94.07
1418.00,93.98
1417.50,93.94
1417.00,93.91
1416.50,93.88
1416.00,93.86
1415.50,93.85
1415.00,93.84
1414.50,93.83
1414.00,93.83
1413.50,93.83
1413.00,93.84
1412.50,93.86
1412.00,93.87
1411.50,93.87
1411.00,93.87
1410.50,93.86
1410.00,93.86
1409.50,93.85
1409.00,93.84
1408.50,93.84
1408.00,93.83
1407.50,93.83
1407.00,93.83
1406.50,93.85
1406.00,93.88
1405.50,93.91
1405.00,93.92
1404.50,93.89
1404.00,93.85
1403.50,93.82
1403.00,93.80
1402.50,93.80
1402.00,93.81
1401.50,93.83
1401.00,93.86
1400.50,93.89
1400.00,93.93
1399.50,93.95
1399.00,93.94
1398.50,93.91
1398.00,93.87
1397.50,93.85
1397.00,93.86
1396.50,93.89
1396.00,93.93
1395.50,93.98
1395.00,94.01
1394.50,93.99
1394.00,93.92
1393.50,93.85
1393.00,93.80
1392.50,93.78
1392.00,93.78
1391.50,93.78
1391.00,93.78
1390.50,93.77
1390.00,93.76
1389.50,93.77
1389.00,93.80
1388.50,93.86
1388.00,93.92
1387.50,93.93
1387.00,93.88
1386.50,93.82
1386.00,93.77
1385.50,93.75
1385.00,93.74
1384.50,93.73
1384.00,93.73
1383.50,93.73
1383.00,93.73
1382.50,93.72
1382.00,93.72
1381.50,93.71
1381.00,93.71
1380.50,93.71
1380.00,93.72
1379.50,93.72
1379.00,93.71
1378.50,93.71
1378.00,93.71
1377.50,93.70
1377.00,93.70
1376.50,93.71
1376.00,93.73
1375.50,93.75
1375.00,93.77
1374.50,93.77
1374.00,93.77
1373.50,93.75
1373.00,93.72
1372.50,93.68
1372.00,93.66
1371.50,93.64
1371.00,93.63
1370.50,93.63
1370.00,93.64
1369.50,93.65
1369.00,93.66
1368.50,93.66
1368.00,93.64
1367.50,93.63
1367.00,93.62
1366.50,93.61
1366.00,93.60
1365.50,93.61
1365.00,93.62
1364.50,93.65
1364.00,93.68
1363.50,93.69
1363.00,93.68
1362.50,93.66
1362.00,93.65
1361.50,93.64
1361.00,93.63
1360.50,93.60
1360.00,93.58
1359.50,93.56
1359.00,93.55
1358.50,93.55
1358.00,93.55
1357.50,93.55
1357.00,93.55
1356.50,93.55
1356.00,93.55
1355.50,93.54
1355.00,93.54
1354.50,93.53
1354.00,93.52
1353.50,93.52
1353.00,93.52
1352.50,93.51
1352.00,93.49
1351.50,93.48
1351.00,93.47
1350.50,93.46
1350.00,93.46
1349.50,93.46
1349.00,93.46
1348.50,93.46
1348.00,93.46
1347.50,93.45
1347.00,93.45
1346.50,93.45
1346.00,93.45
1345.50,93.44
1345.00,93.43
1344.50,93.42
1344.00,93.42
1343.50,93.42
1343.00,93.42
1342.50,93.42
1342.00,93.42
1341.50,93.42
1341.00,93.43
1340.50,93.44
1340.00,93.43
1339.50,93.42
1339.00,93.40
1338.50,93.39
1338.00,93.38
1337.50,93.38
1337.00,93.38
1336.50,93.37
1336.00,93.35
1335.50,93.34
1335.00,93.33
1334.50,93.33
1334.00,93.32
1333.50,93.32
1333.00,93.31
1332.50,93.31
1332.00,93.31
1331.50,93.31
1331.00,93.30
1330.50,93.29
1330.00,93.29
1329.50,93.29
1329.00,93.29
1328.50,93.28
1328.00,93.28
1327.50,93.28
1327.00,93.27
1326.50,93.27
1326.00,93.27
1325.50,93.27
1325.00,93.27
1324.50,93.26
1324.00,93.25
1323.50,93.24
1323.00,93.23
1322.50,93.22
1322.00,93.22
1321.50,93.22
1321.00,93.23
1320.50,93.23
1320.00,93.22
1319.50,93.22
1319.00,93.21
1318.50,93.20
1318.00,93.18
1317.50,93.17
1317.00,93.17
1316.50,93.17
1316.00,93.17
1315.50,93.17
1315.00,93.17
1314.50,93.17
1314.00,93.16
1313.50,93.16
1313.00,93.17
1312.50,93.17
1312.00,93.16
1311.50,93.14
1311.00,93.13
1310.50,93.13
1310.00,93.12
1309.50,93.12
1309.00,93.12
1308.50,93.12
1308.00,93.12
1307.50,93.12
1307.00,93.12
1306.50,93.10
1306.00,93.09
1305.50,93.07
1305.00,93.06
1304.50,93.05
1304.00,93.04
1303.50,93.03
1303.00,93.02
1302.50,93.01
1302.00,93.00
1301.50,93.00
1301.00,93.00
1300.50,93.00
1300.00,92.99
1299.50,92.98
1299.00,92.96
1298.50,92.95
1298.00,92.94
1297.50,92.94
1297.00,92.93
1296.50,92.93
1296.00,92.92
1295.50,92.90
1295.00,92.88
1294.50,92.86
1294.00,92.85
1293.50,92.83
1293.00,92.83
1292.50,92.83
1292.00,92.82
1291.50,92.81
1291.00,92.80
1290.50,92.79
1290.00,92.77
1289.50,92.75
1289.00,92.73
1288.50,92.71
1288.00,92.69
1287.50,92.67
1287.00,92.65
1286.50,92.64
1286.00,92.62
1285.50,92.61
1285.00,92.58
1284.50,92.56
1284.00,92.54
1283.50,92.53
1283.00,92.51
1282.50,92.49
1282.00,92.45
1281.50,92.41
1281.00,92.38
1280.50,92.35
1280.00,92.34
1279.50,92.32
1279.00,92.29
1278.50,92.26
1278.00,92.23
1277.50,92.20
1277.00,92.17
1276.50,92.14
1276.00,92.10
1275.50,92.06
1275.00,92.01
1274.50,91.97
1274.00,91.93
1273.50,91.89
1273.00,91.85
1272.50,91.81
1272.00,91.76
1271.50,91.72
1271.00,91.68
1270.50,91.63
1270.00,91.58
1269.50,91.52
1269.00,91.46
1268.50,91.40
1268.00,91.34
1267.50,91.28
1267.00,91.22
1266.50,91.15
1266.00,91.08
1265.50,91.02
1265.00,90.95
1264.50,90.88
1264.00,90.81
1263.50,90.72
1263.00,90.64
1262.50,90.55
1262.00,90.46
1261.50,90.37
1261.00,90.27
1260.50,90.18
1260.00,90.09
1259.50,89.99
1259.00,89.88
1258.50,89.77
1258.00,89.65
1257.50,89.53
1257.00,89.41
1256.50,89.28
1256.00,89.15
1255.50,89.02
1255.00,88.88
1254.50,88.74
1254.00,88.59
1253.50,88.42
1253.00,88.26
1252.50,88.09
1252.00,87.92
1251.50,87.75
1251.00,87.57
1250.50,87.38
1250.00,87.18
1249.50,86.99
1249.00,86.81
1248.50,86.63
1248.00,86.43
1247.50,86.22
1247.00,85.99
1246.50,85.77
1246.00,85.55
1245.50,85.34
1245.00,85.13
1244.50,84.92
1244.00,84.71
1243.50,84.48
1243.00,84.26
1242.50,84.03
1242.00,83.80
1241.50,83.58
1241.00,83.35
1240.50,83.12
1240.00,82.88
1239.50,82.65
1239.00,82.42
1238.50,82.19
1238.00,81.98
1237.50,81.76
1237.00,81.55
1236.50,81.33
1236.00,81.11
1235.50,80.89
1235.00,80.68
1234.50,80.47
1234.00,80.26
1233.50,80.05
1233.00,79.84
1232.50,79.63
1232.00,79.42
1231.50,79.22
1231.00,79.02
1230.50,78.82
1230.00,78.62
1229.50,78.42
1229.00,78.22
1228.50,78.02
1228.00,77.81
1227.50,77.61
1227.00,77.42
1226.50,77.24
1226.00,77.08
1225.50,76.91
1225.00,76.73
1224.50,76.55
1224.00,76.37
1223.50,76.19
1223.00,76.02
1222.50,75.84
1222.00,75.66
1221.50,75.48
1221.00,75.31
1220.50,75.15
1220.00,75.00
1219.50,74.85
1219.00,74.68
1218.50,74.51
1218.00,74.34
1217.50,74.18
1217.00,74.03
1216.50,73.88
1216.00,73.72
1215.50,73.57
1215.00,73.43
1214.50,73.30
1214.00,73.16
1213.50,73.03
1213.00,72.90
1212.50,72.76
1212.00,72.62
1211.50,72.48
1211.00,72.34
1210.50,72.21
1210.00,72.07
1209.50,71.94
1209.00,71.80
1208.50,71.67
1208.00,71.53
1207.50,71.40
1207.00,71.27
1206.50,71.14
1206.00,71.02
1205.50,70.90
1205.00,70.77
1204.50,70.65
1204.00,70.53
1203.50,70.42
1203.00,70.30
1202.50,70.17
1202.00,70.04
1201.50,69.91
1201.00,69.79
1200.50,69.68
1200.00,69.57
1199.50,69.46
1199.00,69.35
1198.50,69.24
1198.00,69.14
1197.50,69.03
1197.00,68.92
1196.50,68.81
1196.00,68.69
1195.50,68.57
1195.00,68.45
1194.50,68.33
1194.00,68.22
1193.50,68.12
1193.00,68.02
1192.50,67.92
1192.00,67.82
1191.50,67.71
1191.00,67.59
1190.50,67.48
1190.00,67.36
1189.50,67.26
1189.00,67.15
1188.50,67.04
1188.00,66.94
1187.50,66.83
1187.00,66.73
1186.50,66.63
1186.00,66.52
1185.50,66.42
1185.00,66.31
1184.50,66.21
1184.00,66.10
1183.50,66.00
1183.00,65.90
1182.50,65.80
1182.00,65.70
1181.50,65.61
1181.00,65.51
1180.50,65.41
1180.00,65.31
1179.50,65.20
1179.00,65.09
1178.50,64.98
1178.00,64.87
1177.50,64.77
1177.00,64.67
1176.50,64.57
1176.00,64.47
1175.50,64.38
1175.00,64.28
1174.50,64.18
1174.00,64.07
1173.50,63.97
1173.00,63.87
1172.50,63.77
1172.00,63.67
1171.50,63.57
1171.00,63.48
1170.50,63.39
1170.00,63.30
1169.50,63.21
1169.00,63.12
1168.50,63.04
1168.00,62.96
1167.50,62.88
1167.00,62.79
1166.50,62.70
1166.00,62.62
1165.50,62.55
1165.00,62.47
1164.50,62.38
1164.00,62.29
1163.50,62.21
1163.00,62.13
1162.50,62.05
1162.00,61.97
1161.50,61.89
1161.00,61.81
1160.50,61.73
1160.00,61.66
1159.50,61.59
1159.00,61.51
1158.50,61.42
1158.00,61.33
1157.50,61.25
1157.00,61.16
1156.50,61.07
1156.00,60.98
1155.50,60.89
1155.00,60.81
1154.50,60.73
1154.00,60.65
1153.50,60.55
1153.00,60.44
1152.50,60.33
1152.00,60.22
1151.50,60.12
1151.00,60.02
1150.50,59.90
1150.00,59.78
1149.50,59.66
1149.00,59.54
1148.50,59.42
1148.00,59.31
1147.50,59.20
1147.00,59.10
1146.50,59.01
1146.00,58.90
1145.50,58.78
1145.00,58.67
1144.50,58.56
1144.00,58.46
1143.50,58.37
1143.00,58.27
1142.50,58.17
1142.00,58.06
1141.50,57.96
1141.00,57.85
1140.50,57.73
1140.00,57.62
1139.50,57.52
1139.00,57.42
1138.50,57.32
1138.00,57.22
1137.50,57.11
1137.00,57.00
1136.50,56.88
1136.00,56.76
1135.50,56.64
1135.00,56.53
1134.50,56.43
1134.00,56.32
1133.50,56.22
1133.00,56.11
1132.50,56.00
1132.00,55.89
1131.50,55.77
1131.00,55.64
1130.50,55.50
1130.00,55.37
1129.50,55.24
1129.00,55.12
1128.50,55.00
1128.00,54.87
1127.50,54.75
1127.00,54.62
1126.50,54.48
1126.00,54.34
1125.50,54.21
1125.00,54.08
1124.50,53.94
1124.00,53.80
1123.50,53.63
1123.00,53.46
1122.50,53.28
1122.00,53.10
1121.50,52.93
1121.00,52.77
1120.50,52.60
1120.00,52.42
1119.50,52.23
1119.00,52.03
1118.50,51.81
1118.00,51.59
1117.50,51.36
1117.00,51.13
1116.50,50.90
1116.00,50.68
1115.50,50.44
1115.00,50.20
1114.50,49.94
1114.00,49.67
1113.50,49.39
1113.00,49.10
1112.50,48.81
1112.00,48.51
1111.50,48.21
1111.00,47.90
1110.50,47.58
1110.00,47.25
1109.50,46.91
1109.00,46.56
1108.50,46.20
1108.00,45.84
1107.50,45.48
1107.00,45.12
1106.50,44.76
1106.00,44.40
1105.50,44.03
1105.00,43.65
1104.50,43.26
1104.00,42.87
1103.50,42.49
1103.00,42.11
1102.50,41.73
1102.00,41.34
1101.50,40.96
1101.00,40.56
1100.50,40.16
1100.00,39.75
1099.50,39.36
1099.00,38.97
1098.50,38.59
1098.00,38.19
1097.50,37.80
1097.00,37.40
1096.50,37.00
1096.00,36.60
1095.50,36.21
1095.00,35.81
1094.50,35.42
1094.00,35.04
1093.50,34.67
1093.00,34.29
1092.50,33.92
1092.00,33.54
1091.50,33.18
1091.00,32.83
1090.50,32.48
1090.00,32.13
1089.50,31.79
1089.00,31.45
1088.50,31.12
1088.00,30.79
1087.50,30.45
1087.00,30.12
1086.50,29.79
1086.00,29.46
1085.50,29.14
1085.00,28.83
1084.50,28.53
1084.00,28.23
1083.50,27.94
1083.00,27.64
1082.50,27.34
1082.00,27.05
1081.50,26.77
1081.00,26.48
1080.50,26.20
1080.00,25.92
1079.50,25.64
1079.00,25.36
1078.50,25.09
1078.00,24.83
1077.50,24.57
1077.00,24.30
1076.50,24.04
1076.00,23.79
1075.50,23.54
1075.00,23.30
1074.50,23.08
1074.00,22.86
1073.50,22.65
1073.00,22.44
1072.50,22.23
1072.00,22.02
1071.50,21.82
1071.00,21.61
1070.50,21.42
1070.00,21.23
1069.50,21.04
1069.00,20.87
1068.50,20.70
1068.00,20.54
1067.50,20.39
1067.00,20.25
1066.50,20.11
1066.00,19.95
1065.50,19.79
1065.00,19.64
1064.50,19.51
1064.00,19.39
1063.50,19.27
1063.00,19.16
1062.50,19.04
1062.00,18.91
1061.50,18.79
1061.00,18.69
1060.50,18.59
1060.00,18.49
1059.50,18.39
1059.00,18.29
1058.50,18.20
1058.00,18.12
1057.50,18.05
1057.00,17.99
1056.50,17.93
1056.00,17.85
1055.50,17.76
1055.00,17.66
1054.50,17.57
1054.00,17.51
1053.50,17.45
1053.00,17.41
1052.50,17.37
1052.00,17.35
1051.50,17.33
1051.00,17.31
1050.50,17.29
1050.00,17.28
1049.50,17.28
1049.00,17.29
1048.50,17.30
1048.00,17.32
1047.50,17.35
1047.00,17.38
1046.50,17.42
1046.00,17.47
1045.50,17.52
1045.00,17.58
1044.50,17.64
1044.00,17.71
1043.50,17.79
1043.00,17.89
1042.50,18.00
1042.00,18.12
1041.50,18.25
1041.00,18.37
1040.50,18.51
1040.00,18.66
1039.50,18.83
1039.00,19.01
1038.50,19.19
1038.00,19.38
1037.50,19.58
1037.00,19.79
1036.50,20.01
1036.00,20.23
1035.50,20.48
1035.00,20.73
1034.50,21.00
1034.00,21.29
1033.50,21.58
1033.00,21.87
1032.50,22.18
1032.00,22.50
1031.50,22.84
1031.00,23.18
1030.50,23.54
1030.00,23.90
1029.50,24.28
1029.00,24.67
1028.50,25.07
1028.00,25.47
1027.50,25.87
1027.00,26.29
1026.50,26.72
1026.00,27.16
1025.50,27.60
1025.00,28.06
1024.50,28.53
1024.00,29.01
1023.50,29.51
1023.00,30.01
1022.50,30.51
1022.00,31.00
1021.50,31.50
1021.00,32.01
1020.50,32.52
1020.00,33.05
1019.50,33.58
1019.00,34.11
1018.50,34.64
1018.00,35.18
1017.50,35.72
1017.00,36.26
1016.50,36.82
1016.00,37.37
1015.50,37.92
1015.00,38.46
1014.50,38.99
1014.00,39.52
1013.50,40.06
1013.00,40.60
1012.50,41.13
1012.00,41.67
1011.50,42.20
1011.00,42.73
1010.50,43.26
1010.00,43.79
1009.50,44.32
1009.00,44.85
1008.50,45.36
1008.00,45.85
1007.50,46.34
1007.00,46.83
1006.50,47.33
1006.00,47.81
1005.50,48.29
1005.00,48.77
1004.50,49.24
1004.00,49.70
1003.50,50.16
1003.00,50.59
1002.50,51.02
1002.00,51.43
1001.50,51.85
1001.00,52.25
1000.50,52.65
1000.00,53.03
999.50,53.42
999.00,53.79
998.50,54.15
998.00,54.50
997.50,54.82
997.00,55.12
996.50,55.41
996.00,55.69
995.50,55.95
995.00,56.19
994.50,56.42
994.00,56.63
993.50,56.82
993.00,57.00
992.50,57.15
992.00,57.29
991.50,57.42
991.00,57.54
990.50,57.65
990.00,57.76
989.50,57.85
989.00,57.93
988.50,58.00
988.00,58.07
987.50,58.14
987.00,58.19
986.50,58.23
986.00,58.26
985.50,58.29
985.00,58.31
984.50,58.32
984.00,58.33
983.50,58.32
983.00,58.28
982.50,58.23
982.00,58.15
981.50,58.07
981.00,57.98
980.50,57.89
980.00,57.80
979.50,57.69
979.00,57.59
978.50,57.48
978.00,57.36
977.50,57.25
977.00,57.12
976.50,56.99
976.00,56.85
975.50,56.72
975.00,56.59
974.50,56.44
974.00,56.29
973.50,56.14
973.00,55.99
972.50,55.84
972.00,55.69
971.50,55.55
971.00,55.40
970.50,55.27
970.00,55.13
969.50,54.98
969.00,54.84
968.50,54.70
968.00,54.56
967.50,54.42
967.00,54.29
966.50,54.15
966.00,54.02
965.50,53.88
965.00,53.75
964.50,53.61
964.00,53.48
963.50,53.35
963.00,53.22
962.50,53.09
962.00,52.96
961.50,52.83
961.00,52.70
960.50,52.57
960.00,52.46
959.50,52.35
959.00,52.24
958.50,52.12
958.00,52.00
957.50,51.88
957.00,51.76
956.50,51.65
956.00,51.54
955.50,51.43
955.00,51.34
954.50,51.24
954.00,51.15
953.50,51.06
953.00,50.96
952.50,50.87
952.00,50.79
951.50,50.71
951.00,50.65
950.50,50.58
950.00,50.51
949.50,50.44
949.00,50.36
948.50,50.28
948.00,50.20
947.50,50.13
947.00,50.06
946.50,50.01
946.00,49.96
945.50,49.92
945.00,49.87
944.50,49.81
944.00,49.77
943.50,49.74
943.00,49.71
942.50,49.69
942.00,49.67
941.50,49.65
941.00,49.63
940.50,49.61
940.00,49.61
939.50,49.60
939.00,49.59
938.50,49.59
938.00,49.59
937.50,49.59
937.00,49.60
936.50,49.60
936.00,49.62
935.50,49.64
935.00,49.66
934.50,49.67
934.00,49.68
933.50,49.70
933.00,49.73
932.50,49.76
932.00,49.80
931.50,49.85
931.00,49.90
930.50,49.95
930.00,50.01
929.50,50.08
929.00,50.14
928.50,50.20
928.00,50.25
927.50,50.30
927.00,50.38
926.50,50.46
926.00,50.54
925.50,50.61
925.00,50.69
924.50,50.78
924.00,50.87
923.50,50.96
923.00,51.07
922.50,51.19
922.00,51.29
921.50,51.38
921.00,51.45
920.50,51.53
920.00,51.62
919.50,51.71
919.00,51.81
918.50,51.92
918.00,52.02
917.50,52.13
917.00,52.23
916.50,52.33
916.00,52.44
915.50,52.56
915.00,52.66
914.50,52.76
914.00,52.85
913.50,52.94
913.00,53.04
912.50,53.14
912.00,53.26
911.50,53.37
911.00,53.48
910.50,53.58
910.00,53.68
909.50,53.77
909.00,53.87
908.50,53.96
908.00,54.05
907.50,54.15
907.00,54.25
906.50,54.36
906.00,54.45
905.50,54.54
905.00,54.63
904.50,54.72
904.00,54.82
903.50,54.92
903.00,55.01
902.50,55.10
902.00,55.18
901.50,55.26
901.00,55.35
900.50,55.43
900.00,55.51
899.50,55.58
899.00,55.67
898.50,55.76
898.00,55.86
897.50,55.96
897.00,56.06
896.50,56.14
896.00,56.22
895.50,56.29
895.00,56.37
894.50,56.46
894.00,56.56
893.50,56.68
893.00,56.78
892.50,56.87
892.00,56.95
891.50,57.04
891.00,57.15
890.50,57.26
890.00,57.37
889.50,57.47
889.00,57.57
888.50,57.67
888.00,57.78
887.50,57.90
887.00,58.01
886.50,58.11
886.00,58.21
885.50,58.29
885.00,58.38
884.50,58.49
884.00,58.62
883.50,58.75
883.00,58.89
882.50,59.03
882.00,59.16
881.50,59.29
881.00,59.42
880.50,59.56
880.00,59.71
879.50,59.86
879.00,60.00
878.50,60.14
878.00,60.27
877.50,60.40
877.00,60.53
876.50,60.68
876.00,60.83
875.50,60.98
875.00,61.11
874.50,61.24
874.00,61.38
873.50,61.51
873.00,61.64
872.50,61.77
872.00,61.90
871.50,62.05
871.00,62.20
870.50,62.35
870.00,62.49
869.50,62.64
869.00,62.78
868.50,62.92
868.00,63.07
867.50,63.20
867.00,63.33
866.50,63.46
866.00,63.58
865.50,63.72
865.00,63.85
864.50,63.98
864.00,64.11
863.50,64.23
863.00,64.35
862.50,64.48
862.00,64.60
861.50,64.71
861.00,64.82
860.50,64.93
860.00,65.05
859.50,65.18
859.00,65.30
858.50,65.41
858.00,65.51
857.50,65.61
857.00,65.71
856.50,65.82
856.00,65.93
855.50,66.03
855.00,66.13
854.50,66.24
854.00,66.34
853.50,66.44
853.00,66.54
852.50,66.63
852.00,66.72
851.50,66.80
851.00,66.88
850.50,66.97
850.00,67.05
849.50,67.12
849.00,67.17
848.50,67.21
848.00,67.26
847.50,67.32
847.00,67.41
846.50,67.49
846.00,67.55
845.50,67.59
845.00,67.60
844.50,67.61
844.00,67.64
843.50,67.67
843.00,67.70
842.50,67.72
842.00,67.72
841.50,67.71
841.00,67.71
840.50,67.72
840.00,67.73
839.50,67.74
839.00,67.73
838.50,67.69
838.00,67.65
837.50,67.61
837.00,67.58
836.50,67.54
836.00,67.49
835.50,67.44
835.00,67.37
834.50,67.31
834.00,67.25
833.50,67.20
833.00,67.14
832.50,67.06
832.00,66.96
831.50,66.85
831.00,66.73
830.50,66.62
830.00,66.52
829.50,66.43
829.00,66.34
828.50,66.25
828.00,66.17
827.50,66.07
827.00,65.95
826.50,65.83
826.00,65.71
825.50,65.61
825.00,65.50
824.50,65.38
824.00,65.24
823.50,65.10
823.00,64.97
822.50,64.84
822.00,64.71
821.50,64.58
821.00,64.45
820.50,64.32
820.00,64.19
819.50,64.06
819.00,63.92
818.50,63.80
818.00,63.69
817.50,63.58
817.00,63.47
816.50,63.35
816.00,63.21
815.50,63.07
815.00,62.93
814.50,62.79
814.00,62.67
813.50,62.56
813.00,62.45
812.50,62.34
812.00,62.22
811.50,62.09
811.00,61.93
810.50,61.73
810.00,61.53
809.50,61.37
809.00,61.26
808.50,61.20
808.00,61.16
807.50,61.10
807.00,61.03
806.50,60.93
806.00,60.81
805.50,60.68
805.00,60.56
804.50,60.48
804.00,60.41
803.50,60.34
803.00,60.27
802.50,60.17
802.00,60.07
801.50,59.97
801.00,59.88
800.50,59.81
800.00,59.75
799.50,59.70
799.00,59.64
798.50,59.58
798.00,59.50
797.50,59.42
797.00,59.35
796.50,59.29
796.00,59.24
795.50,59.19
795.00,59.13
794.50,59.09
794.00,59.06
793.50,59.03
793.00,59.00
792.50,58.98
792.00,58.96
791.50,58.94
791.00,58.93
790.50,58.92
790.00,58.92
789.50,58.91
789.00,58.91
788.50,58.92
788.00,58.94
787.50,58.98
787.00,59.01
786.50,59.04
786.00,59.06
785.50,59.08
785.00,59.10
784.50,59.14
784.00,59.20
783.50,59.28
783.00,59.37
782.50,59.46
782.00,59.55
781.50,59.64
781.00,59.75
780.50,59.86
780.00,59.97
779.50,60.06
779.00,60.14
778.50,60.23
778.00,60.34
777.50,60.48
777.00,60.63
776.50,60.76
776.00,60.89
775.50,61.01
775.00,61.15
774.50,61.30
774.00,61.44
773.50,61.59
773.00,61.72
772.50,61.85
772.00,61.97
771.50,62.10
771.00,62.21
770.50,62.32
770.00,62.41
769.50,62.48
769.00,62.55
768.50,62.62
768.00,62.69
767.50,62.76
767.00,62.82
766.50,62.87
766.00,62.91
765.50,62.94
765.00,62.98
764.50,63.02
764.00,63.06
763.50,63.09
763.00,63.12
762.50,63.14
762.00,63.16
761.50,63.18
761.00,63.19
760.50,63.20
760.00,63.21
759.50,63.23
759.00,63.24
758.50,63.24
758.00,63.23
757.50,63.22
757.00,63.22
756.50,63.24
756.00,63.26
755.50,63.28
755.00,63.28
754.50,63.28
754.00,63.26
753.50,63.23
753.00,63.21
752.50,63.20
752.00,63.21
751.50,63.20
751.00,63.17
750.50,63.13
750.00,63.09
749.50,63.06
749.00,63.06
748.50,63.06
748.00,63.08
747.50,63.09
747.00,63.10
746.50,63.10
746.00,63.10
745.50,63.08
745.00,63.07
744.50,63.05
744.00,63.05
743.50,63.05
743.00,63.04
742.50,63.02
742.00,62.98
741.50,62.95
741.00,62.91
740.50,62.89
740.00,62.87
739.50,62.85
739.00,62.83
738.50,62.80
738.00,62.78
737.50,62.77
737.00,62.76
736.50,62.75
736.00,62.73
735.50,62.70
735.00,62.66
734.50,62.61
734.00,62.55
733.50,62.52
733.00,62.52
732.50,62.52
732.00,62.52
731.50,62.52
731.00,62.51
730.50,62.49
730.00,62.45
729.50,62.39
729.00,62.33
728.50,62.30
728.00,62.29
727.50,62.30
727.00,62.31
726.50,62.29
726.00,62.25
725.50,62.20
725.00,62.17
724.50,62.15
724.00,62.13
723.50,62.10
723.00,62.06
722.50,62.02
722.00,61.98
721.50,61.96
721.00,61.94
720.50,61.93
720.00,61.92
719.50,61.90
719.00,61.85
718.50,61.80
718.00,61.76
717.50,61.75
717.00,61.75
716.50,61.74
716.00,61.72
715.50,61.68
715.00,61.64
714.50,61.60
714.00,61.57
713.50,61.53
713.00,61.51
712.50,61.50
712.00,61.48
711.50,61.47
711.00,61.45
710.50,61.44
710.00,61.43
709.50,61.41
709.00,61.38
708.50,61.35
708.00,61.34
707.50,61.34
707.00,61.34
706.50,61.33
706.00,61.29
705.50,61.25
705.00,61.21
704.50,61.18
704.00,61.16
703.50,61.14
703.00,61.12
702.50,61.10
702.00,61.07
701.50,61.05
701.00,61.04
700.50,61.05
700.00,61.05
699.50,61.04
699.00,61.02
698.50,61.00
698.00,60.98
697.50,60.97
697.00,60.97
696.50,60.95
696.00,60.93
695.50,60.90
695.00,60.88
694.50,60.88
694.00,60.89
693.50,60.90
693.00,60.89
692.50,60.87
692.00,60.82
691.50,60.78
691.00,60.74
690.50,60.73
690.00,60.73
689.50,60.72
689.00,60.71
688.50,60.69
688.00,60.69
687.50,60.71
687.00,60.73
686.50,60.74
686.00,60.72
685.50,60.69
685.00,60.66
684.50,60.64
684.00,60.62
683.50,60.61
683.00,60.60
682.50,60.60
682.00,60.60
681.50,60.58
681.00,60.56
680.50,60.53
680.00,60.50
679.50,60.48
679.00,60.47
678.50,60.48
678.00,60.49
677.50,60.49
677.00,60.47
676.50,60.46
676.00,60.44
675.50,60.41
675.00,60.39
674.50,60.36
674.00,60.34
673.50,60.32
673.00,60.31
672.50,60.29
672.00,60.26
671.50,60.21
671.00,60.18
670.50,60.18
670.00,60.22
669.50,60.27
669.00,60.30
668.50,60.32
668.00,60.33
667.50,60.34
667.00,60.36
666.50,60.39
666.00,60.41
665.50,60.41
665.00,60.41
664.50,60.40
664.00,60.40
663.50,60.39
663.00,60.39
662.50,60.39
662.00,60.42
661.50,60.46
661.00,60.50
660.50,60.52
660.00,60.56
659.50,60.61
659.00,60.63
658.50,60.61
658.00,60.57
657.50,60.55
657.00,60.55
656.50,60.54
656.00,60.52
655.50,60.51
655.00,60.52
654.50,60.54
654.00,60.54
653.50,60.49
653.00,60.42
652.50,60.36
652.00,60.30
651.50,60.28
651.00,60.28
650.50,60.31
650.00,60.35
649.50,60.37
649.00,60.37
648.50,60.33
648.00,60.27
647.50,60.21
647.00,60.16
646.50,60.13
646.00,60.14
645.50,60.16
645.00,60.17
644.50,60.14
644.00,60.07
643.50,59.99
643.00,59.95
642.50,59.95
642.00,59.96
641.50,59.93
641.00,59.86
640.50,59.80
640.00,59.74
639.50,59.66
639.00,59.55
638.50,59.42
638.00,59.33
637.50,59.30
637.00,59.29
636.50,59.28
636.00,59.25
635.50,59.18
635.00,59.10
634.50,59.04
634.00,58.99
633.50,58.93
633.00,58.84
632.50,58.74
632.00,58.64
631.50,58.53
631.00,58.43
630.50,58.34
630.00,58.29
629.50,58.25
629.00,58.20
628.50,58.14
628.00,58.06
627.50,57.93
627.00,57.78
626.50,57.66
626.00,57.62
625.50,57.61
625.00,57.54
624.50,57.39
624.00,57.23
623.50,57.10
623.00,57.03
622.50,56.98
622.00,56.92
621.50,56.83
621.00,56.67
620.50,56.49
620.00,56.31
619.50,56.19
619.00,56.09
618.50,55.99
618.00,55.86
617.50,55.72
617.00,55.59
616.50,55.49
616.00,55.41
615.50,55.35
615.00,55.36
614.50,55.46
614.00,55.63
613.50,55.77
613.00,55.78
612.50,55.60
612.00,55.25
611.50,54.82
611.00,54.43
610.50,54.20
610.00,54.13
609.50,54.13
609.00,54.08
608.50,53.96
608.00,53.80
607.50,53.66
607.00,53.49
606.50,53.25
606.00,52.95
605.50,52.69
605.00,52.54
604.50,52.51
604.00,52.52
603.50,52.47
603.00,52.34
602.50,52.14
602.00,51.94
601.50,51.81
601.00,51.78
600.50,51.84
600.00,51.88
599.50,51.83
599.00,51.69
598.50,51.50
598.00,51.31
597.50,51.14
597.00,51.02
596.50,50.96
596.00,50.94
595.50,50.89
595.00,50.80
594.50,50.73
594.00,50.70
593.50,50.68
593.00,50.63
592.50,50.55
592.00,50.47
591.50,50.38
591.00,50.24
590.50,50.04
590.00,49.79
589.50,49.56
589.00,49.45
588.50,49.54
588.00,49.75
587.50,49.83
587.00,49.61
586.50,49.21
586.00,48.90
585.50,48.82
585.00,48.90
584.50,48.99
584.00,49.04
583.50,49.10
583.00,49.15
582.50,49.14
582.00,49.03
581.50,48.82
581.00,48.61
580.50,48.46
580.00,48.39
579.50,48.34
579.00,48.28
578.50,48.21
578.00,48.17
577.50,48.18
577.00,48.26
576.50,48.39
576.00,48.42
575.50,48.21
575.00,47.80
574.50,47.50
574.00,47.58
573.50,47.96
573.00,48.32
572.50,48.43
572.00,48.30
571.50,48.01
571.00,47.58
570.50,47.12
570.00,46.84
569.50,46.90
569.00,47.23
568.50,47.57
568.00,47.75
567.50,47.74
567.00,47.61
566.50,47.38
566.00,47.20
565.50,47.22
565.00,47.52
564.50,47.96
564.00,48.29
563.50,48.40
563.00,48.39
562.50,48.42
562.00,48.47
561.50,48.45
561.00,48.30
560.50,48.11
560.00,48.01
559.50,47.99
559.00,48.01
558.50,48.08
558.00,48.21
557.50,48.36
557.00,48.40
556.50,48.30
556.00,48.19
555.50,48.28
555.00,48.62
554.50,49.00
554.00,49.12
553.50,48.85
553.00,48.41
552.50,48.11
552.00,48.08
551.50,48.23
551.00,48.44
550.50,48.70
550.00,48.98
